file_timestamp,unix_timestamp,bvp
1764756299,1764756299776480,0.0
1764756299,1764756299792105,1.049041748046875e-05
1764756299,1764756299807730,5.918401075177826e-05
1764756299,1764756299823355,0.00017144621233455837
1764756299,1764756299838980,0.000353217707015574
1764756299,1764756299854605,0.0005915304645895958
1764756299,1764756299870230,0.0008596075931563973
1764756299,1764756299885855,0.0011239054147154093
1764756299,1764756299901480,0.0013511917786672711
1764756299,1764756299917105,0.0015141875483095646
1764756299,1764756299932730,0.001595171052031219
1764756299,1764756299948355,0.0015874942764639854
1764756299,1764756299963980,0.001495095668360591
1764756299,1764756299979605,0.0013306926703080535
1764756299,1764756299995230,0.001113035250455141
1764756299,1764756300010855,0.0008636905113235116
1764756299,1764756300026480,0.0006038988358341157
1764756299,1764756300042105,0.00035198917612433434
1764756299,1764756300057730,0.0001221450511366129
1764756299,1764756300073355,-7.596722571179271e-05
1764756299,1764756300088980,-0.00023738970048725605
1764756299,1764756300104605,-0.00036166171776130795
1764756299,1764756300120230,-0.00045224797213450074
1764756299,1764756300135855,-0.0005155264516361058
1764756299,1764756300151480,-0.0005592666566371918
1764756299,1764756300167105,-0.0005911359912715852
1764756299,1764756300182730,-0.000617715937551111
1764756299,1764756300198355,-0.0006439819117076695
1764756299,1764756300213980,-0.0006729633896611631
1764756299,1764756300229605,-0.0007056878530420363
1764756299,1764756300245230,-0.0007416181033477187
1764756299,1764756300260855,-0.0007792917895130813
1764756299,1764756300276480,-0.0008167815394699574
1764756299,1764756300292105,-0.0008519917028024793
1764756299,1764756300307730,-0.0008830451406538486
1764756299,1764756300323355,-0.0009086296195164323
1764756299,1764756300338980,-0.0009279477526433766
1764756299,1764756300354605,-0.000940550584346056
1764756299,1764756300370230,-0.0009463053429499269
1764756299,1764756300385855,-0.0009453650563955307
1764756299,1764756300401480,-0.0009382587159052491
1764756299,1764756300417105,-0.0009258508798666298
1764756299,1764756300432730,-0.0009090651292353868
1764756299,1764756300448355,-0.000888754497282207
1764756299,1764756300463980,-0.0008657046128064394
1764756299,1764756300479605,-0.0008406368433497846
1764756299,1764756300495230,-0.0008142112055793405
1764756299,1764756300510855,-0.0007869102410040796
1764756299,1764756300526480,-0.0007588164880871773
1764756299,1764756300542105,-0.0007296530529856682
1764756299,1764756300557730,-0.0006990608526393771
1764756299,1764756300573355,-0.0006667285924777389
1764756299,1764756300588980,-0.0006325090653263032
1764756299,1764756300604605,-0.0005966422613710165
1764756299,1764756300620230,-0.0005597145645879209
1764756299,1764756300635855,-0.0005223818589001894
1764756299,1764756300651480,-0.00048523981240577996
1764756299,1764756300667105,-0.0004487076075747609
1764756299,1764756300682730,-0.00041280535515397787
1764756299,1764756300698355,-0.0003771948686335236
1764756299,1764756300713980,-0.000341456790920347
1764756299,1764756300729605,-0.0003052206593565643
1764756299,1764756300745230,-0.0002682812628336251
1764756299,1764756300760855,-0.00023082159168552607
1764756299,1764756300776480,-0.0001933720923261717
1764756299,1764756300792105,-0.00015653400623705238
1764756299,1764756300807730,-0.00012084939226042479
1764756299,1764756300823355,-8.6684973211959e-05
1764756299,1764756300838980,-5.400952068157494e-05
1764756299,1764756300854605,-2.2434687707573175e-05
1764756299,1764756300870230,8.507893653586507e-06
1764756299,1764756300885855,3.9236561860889196e-05
1764756299,1764756300901480,7.000323967076838e-05
1764756299,1764756300917105,0.0001006704696919769
1764756299,1764756300932730,0.0001307521597482264
1764756299,1764756300948355,0.00015969036030583084
1764756299,1764756300963980,0.00018698506755754352
1764756299,1764756300979605,0.00021231043501757085
1764756299,1764756300995230,0.00023573744692839682
1764756299,1764756301010855,0.0002576929400674999
1764756299,1764756301026480,0.0002786827099043876
1764756299,1764756301042105,0.00029916135827079415
1764756299,1764756301057730,0.0003194159362465143
1764756299,1764756301073355,0.0003393429215066135
1764756299,1764756301088980,0.0003584891092032194
1764756299,1764756301104605,0.0003763281856663525
1764756299,1764756301120230,0.00039239070611074567
1764756299,1764756301135855,0.0004063803644385189
1764756299,1764756301151480,0.00041839637560769916
1764756299,1764756301167105,0.0004288929048925638
1764756299,1764756301182730,0.0004384018247947097
1764756299,1764756301198355,0.00044740282464772463
1764756299,1764756301213980,0.00045620696619153023
1764756299,1764756301229605,0.00046473369002342224
1764756299,1764756301245230,0.00047255161916837096
1764756299,1764756301260855,0.00047915527829900384
1764756299,1764756301276480,0.00048409507144242525
1764756299,1764756301292105,0.00048709340626373887
1764756299,1764756301307730,0.0004882673965767026
1764756299,1764756301323355,0.0004880880005657673
1764756299,1764756301338980,0.0004871030105277896
1764756299,1764756301354605,0.00048580695874989033
1764756299,1764756301370230,0.0004845248186029494
1764756299,1764756301385855,0.0004831890109926462
1764756299,1764756301401480,0.0004813803534489125
1764756299,1764756301417105,0.0004786046629305929
1764756299,1764756301432730,0.00047442264622077346
1764756299,1764756301448355,0.00046856619883328676
1764756299,1764756301463980,0.00046116113662719727
1764756299,1764756301479605,0.0004526862467173487
1764756299,1764756301495230,0.0004436963645275682
1764756299,1764756301510855,0.0004346923378761858
1764756299,1764756301526480,0.00042600464075803757
1764756299,1764756301542105,0.0004175705253146589
1764756299,1764756301557730,0.0004089747089892626
1764756299,1764756301573355,0.0003997263847850263
1764756299,1764756301588980,0.00038938893703743815
1764756299,1764756301604605,0.00037769629852846265
1764756299,1764756301620230,0.0003647755947895348
1764756299,1764756301635855,0.0003511063987389207
1764756299,1764756301651480,0.00033724363311193883
1764756299,1764756301667105,0.00032368768006563187
1764756299,1764756301682730,0.00031076802406460047
1764756299,1764756301698355,0.0002984203747473657
1764756299,1764756301713980,0.00028622744139283895
1764756299,1764756301729605,0.00027369579765945673
1764756299,1764756301745230,0.0002603858010843396
1764756299,1764756301760855,0.0002460278628859669
1764756299,1764756301776480,0.00023074520868249238
1764756299,1764756301792105,0.0002150130458176136
1764756299,1764756301807730,0.00019938159675803035
1764756299,1764756301823355,0.00018434616504237056
1764756299,1764756301838980,0.00017023076361510903
1764756299,1764756301854605,0.00015696535410825163
1764756299,1764756301870230,0.00014412654854822904
1764756299,1764756301885855,0.000131214561406523
1764756299,1764756301901480,0.00011778312182286754
1764756299,1764756301917105,0.00010355575795983896
1764756299,1764756301932730,8.864855044521391e-05
1764756299,1764756301948355,7.352937973337248e-05
1764756299,1764756301963980,5.874093767488375e-05
1764756299,1764756301979605,4.477081893128343e-05
1764756299,1764756301995230,3.193516386090778e-05
1764756299,1764756302010855,2.0155928723397665e-05
1764756299,1764756302026480,9.001596481539309e-06
1764756299,1764756302042105,-2.0358374968054704e-06
1764756299,1764756302057730,-1.3410976862360258e-05
1764756299,1764756302073355,-2.5408680812688544e-05
1764756299,1764756302088980,-3.792132338276133e-05
1764756299,1764756302104605,-5.04895142512396e-05
1764756299,1764756302120230,-6.257908535189927e-05
1764756299,1764756302135855,-7.371097308350727e-05
1764756299,1764756302151480,-8.357755723409355e-05
1764756299,1764756302167105,-9.226539259543642e-05
1764756299,1764756302182730,-0.00010021447815233842
1764756299,1764756302198355,-0.00010794123954838142
1764756299,1764756302213980,-0.00011590865324251354
1764756299,1764756302229605,-0.00012440988211892545
1764756299,1764756302245230,-0.00013334551476873457
1764756299,1764756302260855,-0.00014226431085262448
1764756299,1764756302276480,-0.00015064013132359833
1764756299,1764756302292105,-0.0001580018288223073
1764756299,1764756302307730,-0.00016404959023930132
1764756299,1764756302323355,-0.0001688776392256841
1764756299,1764756302338980,-0.00017293350538238883
1764756299,1764756302354605,-0.00017674098489806056
1764756299,1764756302370230,-0.00018077027925755829
1764756299,1764756302385855,-0.00018532162357587367
1764756299,1764756302401480,-0.00019030252587981522
1764756299,1764756302417105,-0.00019526842515915632
1764756299,1764756302432730,-0.00019969971617683768
1764756299,1764756302448355,-0.00020313159620855004
1764756299,1764756302463980,-0.00020527037850115448
1764756299,1764756302479605,-0.0002062162384390831
1764756299,1764756302495230,-0.00020642246818169951
1764756299,1764756302510855,-0.00020641839364543557
1764756299,1764756302526480,-0.0002066795714199543
1764756299,1764756302542105,-0.0002075113297905773
1764756299,1764756302557730,-0.00020882606622762978
1764756299,1764756302573355,-0.0002101839054375887
1764756299,1764756302588980,-0.00021106970962136984
1764756299,1764756302604605,-0.00021102292521391064
1764756299,1764756302620230,-0.00020975389634259045
1764756299,1764756302635855,-0.00020736659644171596
1764756299,1764756302651480,-0.00020431788288988173
1764756299,1764756302667105,-0.00020114047219976783
1764756299,1764756302682730,-0.00019831303507089615
1764756299,1764756302698355,-0.00019614381017163396
1764756299,1764756302713980,-0.00019454790162853897
1764756299,1764756302729605,-0.00019308790797367692
1764756299,1764756302745230,-0.00019125096150673926
1764756299,1764756302760855,-0.00018857854593079537
1764756299,1764756302776480,-0.0001847828389145434
1764756299,1764756302792105,-0.0001799694582587108
1764756299,1764756302807730,-0.0001745966583257541
1764756299,1764756302823355,-0.00016919837798923254
1764756299,1764756302838980,-0.00016425429203081876
1764756299,1764756302854605,-0.0001600734976818785
1764756299,1764756302870230,-0.0001565717248013243
1764756299,1764756302885855,-0.000153312023030594
1764756299,1764756302901480,-0.0001497817866038531
1764756299,1764756302917105,-0.00014552257198374718
1764756299,1764756302932730,-0.000140246469527483
1764756299,1764756302948355,-0.0001340588351013139
1764756299,1764756302963980,-0.00012741748651023954
1764756299,1764756302979605,-0.00012085579510312527
1764756299,1764756302995230,-0.00011485270078992471
1764756299,1764756303010855,-0.0001097163840313442
1764756299,1764756303026480,-0.00010536153422435746
1764756299,1764756303042105,-0.00010135003685718402
1764756299,1764756303057730,-9.716796921566129e-05
1764756299,1764756303073355,-9.235546895070001e-05
1764756299,1764756303088980,-8.662306936457753e-05
1764756299,1764756303104605,-8.007443830138072e-05
1764756299,1764756303120230,-7.3165625508409e-05
1764756299,1764756303135855,-6.642808148171753e-05
1764756299,1764756303151480,-6.033876343281008e-05
1764756299,1764756303167105,-5.5203774536494166e-05
1764756299,1764756303182730,-5.093562867841683e-05
1764756299,1764756303198355,-4.7093959437916055e-05
1764756299,1764756303213980,-4.316251215641387e-05
1764756299,1764756303229605,-3.8679023418808356e-05
1764756299,1764756303245230,-3.3351563615724444e-05
1764756299,1764756303260855,-2.7281268557999283e-05
1764756299,1764756303276480,-2.092161594191566e-05
1764756299,1764756303292105,-1.4801431461819448e-05
1764756299,1764756303307730,-9.395001143275294e-06
1764756299,1764756303323355,-5.00572195960558e-06
1764756299,1764756303338980,-1.5433695352840004e-06
1764756299,1764756303354605,1.4351871868711896e-06
1764756299,1764756303370230,4.448991148819914e-06
1764756299,1764756303385855,7.963112693687435e-06
1764756299,1764756303401480,1.2272299500182271e-05
1764756299,1764756303417105,1.7278240193263628e-05
1764756299,1764756303432730,2.2530282876687124e-05
1764756299,1764756303448355,2.7502424927661195e-05
1764756299,1764756303463980,3.172319702571258e-05
1764756299,1764756303479605,3.489200753392652e-05
1764756299,1764756303495230,3.7101875932421535e-05
1764756299,1764756303510855,3.879870564560406e-05
1764756299,1764756303526480,4.050428469781764e-05
1764756299,1764756303542105,4.268640623195097e-05
1764756299,1764756303557730,4.564250775729306e-05
1764756299,1764756303573355,4.927693953504786e-05
1764756299,1764756303588980,5.3141666285227984e-05
1764756299,1764756303604605,5.67132665310055e-05
1764756299,1764756303620230,5.952280480414629e-05
1764756299,1764756303635855,6.127217784523964e-05
1764756299,1764756303651480,6.205684621818364e-05
1764756299,1764756303667105,6.232509622350335e-05
1764756299,1764756303682730,6.260105146793649e-05
1764756299,1764756303698355,6.335477519314736e-05
1764756299,1764756303713980,6.488592043751851e-05
1764756299,1764756303729605,6.710099842166528e-05
1764756299,1764756303745230,6.955406570341438e-05
1764756299,1764756303760855,7.172372716013342e-05
1764756299,1764756303776480,7.314301910810173e-05
1764756299,1764756303792105,7.351573003688827e-05
1764756299,1764756303807730,7.293913222383708e-05
1764756299,1764756303823355,7.186328002717346e-05
1764756299,1764756303838980,7.0813977799844e-05
1764756299,1764756303854605,7.026291132206097e-05
1764756299,1764756303870230,7.051126885926351e-05
1764756299,1764756303885855,7.146702409954742e-05
1764756299,1764756303901480,7.268561603268608e-05
1764756299,1764756303917105,7.36469664843753e-05
1764756299,1764756303932730,7.38853559596464e-05
1764756299,1764756303948355,7.310573710128665e-05
1764756299,1764756303963980,7.140648813219741e-05
1764756299,1764756303979605,6.923866749275476e-05
1764756299,1764756303995230,6.712903268635273e-05
1764756299,1764756304010855,6.555014260811731e-05
1764756299,1764756304026480,6.480397132690996e-05
1764756299,1764756304042105,6.47992201265879e-05
1764756299,1764756304057730,6.509200466098264e-05
1764756299,1764756304073355,6.51628288323991e-05
1764756299,1764756304088980,6.454647518694401e-05
1764756299,1764756304104605,6.294834020081908e-05
1764756299,1764756304120230,6.0467180446721613e-05
1764756299,1764756304135855,5.75543635932263e-05
1764756299,1764756304151480,5.4736887250328436e-05
1764756299,1764756304167105,5.2487481298157945e-05
1764756299,1764756304182730,5.110825441079214e-05
1764756299,1764756304198355,5.050794788985513e-05
1764756299,1764756304213980,5.02426628372632e-05
1764756299,1764756304229605,4.9792841309681535e-05
1764756299,1764756304245230,4.869314216193743e-05
1764756299,1764756304260855,4.6648787247249857e-05
1764756299,1764756304276480,4.375829303171486e-05
1764756299,1764756304292105,4.047274705953896e-05
1764756299,1764756304307730,3.731881224666722e-05
1764756299,1764756304323355,3.4768832847476006e-05
1764756299,1764756304338980,3.312448461656459e-05
1764756299,1764756304354605,3.229403591831215e-05
1764756299,1764756304370230,3.183306398568675e-05
1764756299,1764756304385855,3.122144698863849e-05
1764756299,1764756304401480,2.9993247153470293e-05
1764756299,1764756304417105,2.7853049687109888e-05
1764756299,1764756304432730,2.4898698029574007e-05
1764756299,1764756304448355,2.1580573957180604e-05
1764756299,1764756304463980,1.8424598238198087e-05
1764756299,1764756304479605,1.5902347513474524e-05
1764756299,1764756304495230,1.4314704458229244e-05
1764756299,1764756304510855,1.3569117982115131e-05
1764756299,1764756304526480,1.322032494499581e-05
1764756299,1764756304542105,1.2747337677865289e-05
1764756299,1764756304557730,1.1683330740197562e-05
1764756299,1764756304573355,9.731986210681498e-06
1764756299,1764756304588980,6.990228939685039e-06
1764756299,1764756304604605,3.907505288225366e-06
1764756299,1764756304620230,1.0087916280099307e-06
1764756299,1764756304635855,-1.235291279044759e-06
1764756299,1764756304651480,-2.5248280053347116e-06
1764756299,1764756304667105,-2.9533414362958865e-06
1764756299,1764756304682730,-2.967073896797956e-06
1764756299,1764756304698355,-3.087993945882772e-06
1764756299,1764756304713980,-3.783910642596311e-06
1764756299,1764756304729605,-5.352125299395993e-06
1764756299,1764756304745230,-7.696696229686495e-06
1764756299,1764756304760855,-1.0369155461376067e-05
1764756299,1764756304776480,-1.2845503079006448e-05
1764756299,1764756304792105,-1.4656088751507923e-05
1764756299,1764756304807730,-1.5501960660913028e-05
1764756299,1764756304823355,-1.5477597116841935e-05
1764756299,1764756304838980,-1.5030185750219971e-05
1764756299,1764756304854605,-1.4682628716400359e-05
1764756299,1764756304870230,-1.4903658666298725e-05
1764756299,1764756304885855,-1.5991485270205885e-05
1764756299,1764756304901480,-1.785106178431306e-05
1764756299,1764756304917105,-2.0034800400026143e-05
1764756299,1764756304932730,-2.201956340286415e-05
1764756299,1764756304948355,-2.3336548110819422e-05
1764756299,1764756304963980,-2.3687629436608404e-05
1764756299,1764756304979605,-2.3168093321146443e-05
1764756299,1764756304995230,-2.2225916836760007e-05
1764756299,1764756305010855,-2.1384770661825314e-05
1764756299,1764756305026480,-2.1114134142408147e-05
1764756299,1764756305042105,-2.171294363506604e-05
1764756299,1764756305057730,-2.3086855435394682e-05
1764756299,1764756305073355,-2.4788962036836892e-05
1764756299,1764756305088980,-2.629678238008637e-05
1764756299,1764756305104605,-2.7142144972458482e-05
1764756299,1764756305120230,-2.702753226913046e-05
1764756299,1764756305135855,-2.604881410661619e-05
1764756299,1764756305151480,-2.4654527805978432e-05
1764756299,1764756305167105,-2.3368877009488642e-05
1764756299,1764756305182730,-2.2661848561256193e-05
1764756299,1764756305198355,-2.2832859031041153e-05
1764756299,1764756305213980,-2.3788023099768907e-05
1764756299,1764756305229605,-2.5080860723392107e-05
1764756299,1764756305245230,-2.618929647724144e-05
1764756299,1764756305260855,-2.6645537218428217e-05
1764756299,1764756305276480,-2.6152420105063356e-05
1764756299,1764756305292105,-2.4806144210742787e-05
1764756299,1764756305307730,-2.305554698978085e-05
1764756299,1764756305323355,-2.1425108570838347e-05
1764756299,1764756305338980,-2.038506863755174e-05
1764756299,1764756305354605,-2.023507113335654e-05
1764756299,1764756305370230,-2.0881429009023122e-05
1764756299,1764756305385855,-2.187784411944449e-05
1764756299,1764756305401480,-2.270239383506123e-05
1764756299,1764756305417105,-2.2887415980221704e-05
1764756299,1764756305432730,-2.2135855033411644e-05
1764756299,1764756305448355,-2.0543991922750138e-05
1764756299,1764756305463980,-1.8560725948191248e-05
1764756299,1764756305479605,-1.671057725616265e-05
1764756299,1764756305495230,-1.5463803720194846e-05
1764756299,1764756305510855,-1.5120048374228645e-05
1764756299,1764756305526480,-1.5585603250656277e-05
1764756299,1764756305542105,-1.641412563913036e-05
1764756299,1764756305557730,-1.7083630154957063e-05
1764756299,1764756305573355,-1.7126372767961584e-05
1764756299,1764756305588980,-1.6245199731201865e-05
1764756299,1764756305604605,-1.4536277376464568e-05
1764756299,1764756305620230,-1.24483722174773e-05
1764756299,1764756305635855,-1.0505857062526047e-05
1764756299,1764756305651480,-9.178823347610887e-06
1764756299,1764756305667105,-8.766734026721679e-06
1764756299,1764756305682730,-9.175686500384472e-06
1764756299,1764756305698355,-9.959131602954585e-06
1764756299,1764756305713980,-1.0594865671009757e-05
1764756299,1764756305729605,-1.0614912753226236e-05
1764756299,1764756305745230,-9.721873539092485e-06
1764756299,1764756305760855,-8.011658792383969e-06
1764756299,1764756305776480,-5.932769909122726e-06
1764756299,1764756305792105,-4.009304120700108e-06
1764756299,1764756305807730,-2.7110704650112893e-06
1764756299,1764756305823355,-2.33723949349951e-06
1764756299,1764756305838980,-2.793609382933937e-06
1764756299,1764756305854605,-3.6333246953290654e-06
1764756299,1764756305870230,-4.3338686737115495e-06
1764756299,1764756305885855,-4.426947725733044e-06
1764756299,1764756305901480,-3.614839897636557e-06
1764756299,1764756305917105,-1.9931294445996173e-06
1764756299,1764756305932730,-9.986564464270486e-09
1764756299,1764756305948355,1.8108250969817163e-06
1764756299,1764756305963980,2.9998332138347905e-06
1764756299,1764756305979605,3.2582051971985493e-06
1764756299,1764756305995230,2.6804818844539113e-06
1764756299,1764756306010855,1.7138588646048447e-06
1764756299,1764756306026480,8.811933867036714e-07
1764756299,1764756306042105,6.511186256830115e-07
1764756299,1764756306057730,1.3216954357631039e-06
1764756299,1764756306073355,2.7976770979876164e-06
1764756299,1764756306088980,4.631229330698261e-06
1764756299,1764756306104605,6.298921562120086e-06
1764756299,1764756306120230,7.331611868721666e-06
1764756299,1764756306135855,7.430793630192056e-06
1764756299,1764756306151480,6.691331691399682e-06
1764756299,1764756306167105,5.56074110136251e-06
1764756299,1764756306182730,4.562193225865485e-06
1764756299,1764756306198355,4.164630809100345e-06
1764756299,1764756306213980,4.666419044951908e-06
1764756299,1764756306229605,5.972609869786538e-06
1764756299,1764756306245230,7.635661859239917e-06
1764756299,1764756306260855,9.132430932368152e-06
1764756299,1764756306276480,9.994055290007964e-06
1764756299,1764756306292105,9.92230161500629e-06
1764756299,1764756306307730,9.012300324684475e-06
1764756299,1764756306323355,7.711824764555786e-06
1764756299,1764756306338980,6.544297775690211e-06
1764756299,1764756306354605,5.97890539211221e-06
1764756299,1764756306370230,6.314247912087012e-06
1764756299,1764756306385855,7.455604645656422e-06
1764756299,1764756306401480,8.95565335667925e-06
1764756299,1764756306417105,1.0291460057487711e-05
1764756299,1764756306432730,1.099436394724762e-05
1764756299,1764756306448355,1.0766325431177393e-05
1764756299,1764756306463980,9.702660463517532e-06
1764756299,1764756306479605,8.251316103269346e-06
1764756299,1764756306495230,6.9358834480226506e-06
1764756299,1764756306510855,6.2257049648906104e-06
1764756299,1764756306526480,6.419531018764246e-06
1764756299,1764756306542105,7.4227818913641386e-06
1764756299,1764756306557730,8.788266313786153e-06
1764756299,1764756306573355,9.993173080147244e-06
1764756299,1764756306588980,1.0568955076450948e-05
1764756299,1764756306604605,1.0217678209301084e-05
1764756299,1764756306620230,9.034753020387143e-06
1764756299,1764756306635855,7.468215244443854e-06
1764756299,1764756306651480,6.041733286110684e-06
1764756299,1764756306667105,5.224721007834887e-06
1764756299,1764756306682730,5.315990165399853e-06
1764756299,1764756306698355,6.221013791218866e-06
1764756299,1764756306713980,7.492645181628177e-06
1764756299,1764756306729605,8.608110874774866e-06
1764756299,1764756306745230,9.098893315240275e-06
1764756299,1764756306760855,8.667078873259015e-06
1764756299,1764756306776480,7.408093551930506e-06
1764756299,1764756306792105,5.769980361947091e-06
1764756299,1764756306807730,4.276406343706185e-06
1764756299,1764756306823355,3.396778083697427e-06
1764756299,1764756306838980,3.4298927857889794e-06
1764756299,1764756306854605,4.281202109268634e-06
1764756299,1764756306870230,5.50353252037894e-06
1764756299,1764756306885855,6.574075996468309e-06
1764756299,1764756306901480,7.024274964351207e-06
1764756299,1764756306917105,6.556170774274506e-06
1764756299,1764756306932730,5.265136678644922e-06
1764756299,1764756306948355,3.599158844735939e-06
1764756299,1764756306963980,2.081843149426277e-06
1764756299,1764756306979605,1.1825295587186702e-06
1764756299,1764756306995230,1.199943426399841e-06
1764756299,1764756307010855,2.0394606963236583e-06
1764756299,1764756307026480,3.25382711707789e-06
1764756299,1764756307042105,4.320150765124708e-06
1764756299,1764756307057730,4.769786755787209e-06
1764756299,1764756307073355,4.304683898226358e-06
1764756299,1764756307088980,3.0201219942682656e-06
1764756299,1764756307104605,1.363988985758624e-06
1764756299,1764756307120230,-1.402102043357445e-07
1764756299,1764756307135855,-1.0232391787212691e-06
1764756299,1764756307151480,-9.864783123703091e-07
1764756299,1764756307167105,-1.2465943655115552e-07
1764756299,1764756307182730,1.1148536032123957e-06
1764756299,1764756307198355,2.209057129221037e-06
1764756299,1764756307213980,2.6891930247074924e-06
1764756299,1764756307229605,2.257096639368683e-06
1764756299,1764756307245230,1.0079315870825667e-06
1764756299,1764756307260855,-6.10530207723059e-07
1764756299,1764756307276480,-2.074900521620293e-06
1764756299,1764756307292105,-2.916060111601837e-06
1764756299,1764756307307730,-2.835506847986835e-06
1764756299,1764756307323355,-1.9280901142337825e-06
1764756299,1764756307338980,-6.412914217435173e-07
1764756299,1764756307354605,5.017686817154754e-07
1764756299,1764756307370230,1.0322153229935793e-06
1764756299,1764756307385855,6.517680049000774e-07
1764756299,1764756307401480,-5.445247097668471e-07
1764756299,1764756307417105,-2.10900498132105e-06
1764756299,1764756307432730,-3.518397761581582e-06
1764756299,1764756307448355,-4.303695732232882e-06
1764756299,1764756307463980,-4.166507096670102e-06
1764756299,1764756307479605,-3.2017901503422763e-06
1764756299,1764756307495230,-1.8571333839645376e-06
1764756299,1764756307510855,-6.557623919434263e-07
1764756299,1764756307526480,-6.665527507720981e-08
1764756299,1764756307542105,-3.881941665895283e-07
1764756299,1764756307557730,-1.5254292975441786e-06
1764756299,1764756307573355,-3.0307999168144306e-06
1764756299,1764756307588980,-4.381125108920969e-06
1764756299,1764756307604605,-5.107489414513111e-06
1764756299,1764756307620230,-4.911590167466784e-06
1764756299,1764756307635855,-3.888472747348715e-06
1764756299,1764756307651480,-2.485809545760276e-06
1764756299,1764756307667105,-1.2269082390048425e-06
1764756299,1764756307682730,-5.8082537179871e-07
1764756299,1764756307698355,-8.460183380520903e-07
1764756299,1764756307713980,-1.9276105831522727e-06
1764756299,1764756307729605,-3.378110932317213e-06
1764756299,1764756307745230,-4.674405317928176e-06
1764756299,1764756307760855,-5.347642400010955e-06
1764756299,1764756307776480,-5.099580448586494e-06
1764756299,1764756307792105,-4.025322596135084e-06
1764756299,1764756307807730,-2.572595803940203e-06
1764756299,1764756307823355,-1.2647590210690396e-06
1764756299,1764756307838980,-5.709175638912711e-07
1764756299,1764756307854605,-7.895746421127114e-07
1764756299,1764756307870230,-1.8258958789374446e-06
1764756299,1764756307885855,-3.232429435229278e-06
1764756299,1764756307901480,-4.486098077904899e-06
1764756299,1764756307917105,-5.118083208799362e-06
1764756299,1764756307932730,-4.830173566006124e-06
1764756299,1764756307948355,-3.7174991120991763e-06
1764756299,1764756307963980,-2.2278118194662966e-06
1764756299,1764756307979605,-8.844914418659755e-07
1764756299,1764756307995230,-1.5666182662243955e-07
1764756299,1764756308010855,-3.4284175853827037e-07
1764756299,1764756308026480,-1.3482100484907278e-06
1764756299,1764756308042105,-2.725325202845852e-06
1764756299,1764756308057730,-3.95111692341743e-06
1764756299,1764756308073355,-4.556772182695568e-06
1764756299,1764756308088980,-4.244082447257824e-06
1764756299,1764756308104605,-3.108176997557166e-06
1764756299,1764756308120230,-1.596805191184103e-06
1764756299,1764756308135855,-2.3334234811045462e-07
1764756299,1764756308151480,5.130951876708423e-07
1764756299,1764756308167105,3.439980673647369e-07
1764756299,1764756308182730,-6.458009238485829e-07
1764756299,1764756308198355,-2.0088464225409552e-06
1764756299,1764756308213980,-3.2220527828030754e-06
1764756299,1764756308229605,-3.816588559857337e-06
1764756299,1764756308245230,-3.4942254387715366e-06
1764756299,1764756308260855,-2.350072008994175e-06
1764756299,1764756308276480,-8.318543223140296e-07
1764756299,1764756308292105,5.370766302803531e-07
1764756299,1764756308307730,1.2876305390818743e-06
1764756299,1764756308323355,1.1213256811970496e-06
1764756299,1764756308338980,1.3302405932336114e-07
1764756299,1764756308354605,-1.2297883813516819e-06
1764756299,1764756308370230,-2.443994389977888e-06
1764756299,1764756308385855,-3.0407302347157383e-06
1764756299,1764756308401480,-2.7217331535211997e-06
1764756299,1764756308417105,-1.5820776297914563e-06
1764756299,1764756308432730,-6.945376185285568e-08
1764756299,1764756308448355,1.2928239812026732e-06
1764756299,1764756308463980,2.0357026642159326e-06
1764756299,1764756308479605,1.8607385072755278e-06
1764756299,1764756308495230,8.628318823866721e-07
1764756299,1764756308510855,-5.104922138343682e-07
1764756299,1764756308526480,-1.7360770243612933e-06
1764756299,1764756308542105,-2.3450190838048e-06
1764756299,1764756308557730,-2.0390159534144914e-06
1764756299,1764756308573355,-9.131013598562276e-07
1764756299,1764756308588980,5.850753268532571e-07
1764756299,1764756308604605,1.9322401385579724e-06
1764756299,1764756308620230,2.6593806978780776e-06
1764756299,1764756308635855,2.468093953211792e-06
1764756299,1764756308651480,1.4533206922351383e-06
1764756299,1764756308667105,6.26261851266463e-08
1764756299,1764756308682730,-1.1807926512119593e-06
1764756299,1764756308698355,-1.8079925894198823e-06
1764756299,1764756308713980,-1.520631485618651e-06
1764756299,1764756308729605,-4.137039582019497e-07
1764756299,1764756308745230,1.0651789352777996e-06
1764756299,1764756308760855,2.392781425442081e-06
1764756299,1764756308776480,3.1001288789411774e-06
1764756299,1764756308792105,2.888854623961379e-06
1764756299,1764756308807730,1.8539361690272926e-06
1764756299,1764756308823355,4.429745388279116e-07
1764756299,1764756308838980,-8.207983341890213e-07
1764756299,1764756308854605,-1.4684048892377177e-06
1764756299,1764756308870230,-1.2014696721962537e-06
1764756299,1764756308885855,-1.1495444596221205e-07
1764756299,1764756308901480,1.3435615073831286e-06
1764756299,1764756308917105,2.6508732844376937e-06
1764756299,1764756308932730,3.338036094646668e-06
1764756299,1764756308948355,3.106712938460987e-06
1764756299,1764756308963980,2.0519094050541753e-06
1764756299,1764756308979605,6.212534344740561e-07
1764756299,1764756308995230,-6.61996864437242e-07
1764756299,1764756309010855,-1.328838834524504e-06
1764756299,1764756309026480,-1.0808726074174047e-06
1764756299,1764756309042105,-1.303715180256404e-08
1764756299,1764756309057730,1.4271105328589329e-06
1764756299,1764756309073355,2.716386461543152e-06
1764756299,1764756309088980,3.385866193639231e-06
1764756299,1764756309104605,3.1372310331789777e-06
1764756299,1764756309120230,2.0655047592299525e-06
1764756299,1764756309135855,6.183322511787992e-07
1764756299,1764756309151480,-6.810126365053293e-07
1764756299,1764756309167105,-1.363512410534895e-06
1764756299,1764756309182730,-1.1307536169624655e-06
1764756299,1764756309198355,-7.76625483922544e-08
1764756299,1764756309213980,1.3482151643984253e-06
1764756299,1764756309229605,2.6237062229483854e-06
1764756299,1764756309245230,3.279895281593781e-06
1764756299,1764756309260855,3.018472398252925e-06
1764756299,1764756309276480,1.934468855324667e-06
1764756299,1764756309292105,4.7553575655001623e-07
1764756299,1764756309307730,-8.350475582119543e-07
1764756299,1764756309323355,-1.528259190308745e-06
1764756299,1764756309338980,-1.3056820762358257e-06
1764756299,1764756309354605,-2.6224006433039904e-07
1764756299,1764756309370230,1.1545230336196255e-06
1764756299,1764756309385855,2.421434601274086e-06
1764756299,1764756309401480,3.069579634029651e-06
1764756299,1764756309417105,2.800647507683607e-06
1764756299,1764756309432730,1.7096672308980487e-06
1764756299,1764756309448355,2.4428786105090694e-07
1764756299,1764756309463980,-1.0722146726038773e-06
1764756299,1764756309479605,-1.7708223367662868e-06
1764756299,1764756309495230,-1.553123070152651e-06
1764756299,1764756309510855,-5.140459506947082e-07
1764756299,1764756309526480,8.988590707303956e-07
1764756299,1764756309542105,2.1624127839459106e-06
1764756299,1764756309557730,2.8076926810172154e-06
1764756299,1764756309573355,2.5363804070366314e-06
1764756299,1764756309588980,1.4434962167797494e-06
1764756299,1764756309604605,-2.3319955744227627e-08
1764756299,1764756309620230,-1.340801532023761e-06
1764756299,1764756309635855,-2.0399404547788436e-06
1764756299,1764756309651480,-1.8223352071800036e-06
1764756299,1764756309667105,-7.829256674085627e-07
1764756299,1764756309682730,6.307269586613984e-07
1764756299,1764756309698355,1.8954318647956825e-06
1764756299,1764756309713980,2.542254378568032e-06
1764756299,1764756309729605,2.272863866892294e-06
1764756299,1764756309745230,1.1822681926787482e-06
1764756299,1764756309760855,-2.8190569878461247e-07
1764756299,1764756309776480,-1.5964044450811343e-06
1764756299,1764756309792105,-2.2922336029296275e-06
1764756299,1764756309807730,-2.071004701065249e-06
1764756299,1764756309823355,-1.0276716011503595e-06
1764756299,1764756309838980,3.9019076325530477e-07
1764756299,1764756309854605,1.6593777445450542e-06
1764756299,1764756309870230,2.310940999450395e-06
1764756299,1764756309885855,2.046535200861399e-06
1764756299,1764756309901480,9.611546829546569e-07
1764756299,1764756309917105,-4.975876777280064e-07
1764756299,1764756309932730,-1.8064524738292675e-06
1764756299,1764756309948355,-2.496459273970686e-06
1764756299,1764756309963980,-2.269233391416492e-06
1764756299,1764756309979605,-1.2197426713100867e-06
1764756299,1764756309995230,2.0442432457912219e-07
1764756299,1764756310010855,1.4800492635913542e-06
1764756299,1764756310026480,2.1381702026701532e-06
1764756299,1764756310042105,1.880428499134723e-06
1764756299,1764756310057730,8.018052994884783e-07
1764756299,1764756310073355,-6.500996505565126e-07
1764756299,1764756310088980,-1.9520596197253326e-06
1764756299,1764756310104605,-2.6351065116614336e-06
1764756299,1764756310120230,-2.40087842939829e-06
1764756299,1764756310135855,-1.3443549278235878e-06
1764756299,1764756310151480,8.686345154274022e-08
1764756299,1764756310167105,1.369546680507483e-06
1764756299,1764756310182730,2.034721546806395e-06
1764756299,1764756310198355,1.7840184227679856e-06
1764756299,1764756310213980,7.124076546460856e-07
1764756299,1764756310229605,-7.325211299757939e-07
1764756299,1764756310245230,-2.027551545324968e-06
1764756299,1764756310260855,-2.703725385799771e-06
1764756299,1764756310276480,-2.4626899630675325e-06
1764756299,1764756310292105,-1.3994339269629563e-06
1764756299,1764756310307730,3.8433569216067553e-08
1764756299,1764756310323355,1.3276742265588837e-06
1764756299,1764756310338980,1.9993065052403836e-06
1764756299,1764756310354605,1.7549535868965904e-06
1764756299,1764756310370230,6.895780870763701e-07
1764756299,1764756310385855,-7.492370741601917e-07
1764756299,1764756310401480,-2.0382819911901606e-06
1764756299,1764756310417105,-2.7086045975011075e-06
1764756299,1764756310432730,-2.461858230162761e-06
1764756299,1764756310448355,-1.3930366549175233e-06
1764756299,1764756310463980,5.024554639021517e-08
1764756299,1764756310479605,1.3447454421111615e-06
1764756299,1764756310495230,2.0214772575855022e-06
1764756299,1764756310510855,1.7820602806750685e-06
1764756299,1764756310526480,7.214532615762437e-07
1764756299,1764756310542105,-7.127640628823428e-07
1764756299,1764756310557730,-1.9973847429355374e-06
1764756299,1764756310573355,-2.6634593268681783e-06
1764756299,1764756310588980,-2.4126431981130736e-06
1764756299,1764756310604605,-1.3399322824625415e-06
1764756299,1764756310620230,1.0705737452099129e-07
1764756299,1764756310635855,1.405081548000453e-06
1764756299,1764756310651480,2.0851537101407303e-06
1764756299,1764756310667105,1.8488922250980977e-06
1764756299,1764756310682730,7.912559567557764e-07
1764756299,1764756310698355,-6.401756991181173e-07
1764756299,1764756310713980,-1.9221954516979167e-06
1764756299,1764756310729605,-2.5858532808342716e-06
1764756299,1764756310745230,-2.3328038878389634e-06
1764756299,1764756310760855,-1.2580419479490956e-06
1764756299,1764756310776480,1.9081804225606902e-07
1764756299,1764756310792105,1.490533350079204e-06
1764756299,1764756310807730,2.172119366150582e-06
1764756299,1764756310823355,1.937196429935284e-06
1764756299,1764756310838980,8.807256790532847e-07
1764756299,1764756310854605,-5.49710762243194e-07
1764756299,1764756310870230,-1.83090287464438e-06
1764756299,1764756310885855,-2.4938976821431424e-06
1764756299,1764756310901480,-2.2403467028198065e-06
1764756299,1764756310917105,-1.1652413149931817e-06
1764756299,1764756310932730,2.8380708272379707e-07
1764756299,1764756310948355,1.5835596514079953e-06
1764756299,1764756310963980,2.2650353912467835e-06
1764756299,1764756310979605,2.0298587060096906e-06
1764756299,1764756310995230,9.729947123560123e-07
1764756299,1764756311010855,-4.5797031589245307e-07
1764756299,1764756311026480,-1.7398222098563565e-06
1764756299,1764756311042105,-2.4036037302721525e-06
1764756299,1764756311057730,-2.1509617909032386e-06
1764756299,1764756311073355,-1.0768833362817531e-06
1764756299,1764756311088980,3.7102506666997215e-07
1764756299,1764756311104605,1.6695290696588927e-06
1764756299,1764756311120230,2.349652277189307e-06
1764756299,1764756311135855,2.113023811034509e-06
1764756299,1764756311151480,1.0546137900746544e-06
1764756299,1764756311167105,-3.779867654429836e-07
1764756299,1764756311182730,-1.6615588265267434e-06
1764756299,1764756311198355,-2.3271400095836725e-06
1764756299,1764756311213980,-2.076372766168788e-06
1764756299,1764756311229605,-1.0042389249065309e-06
1764756299,1764756311245230,4.4165960844111396e-07
1764756299,1764756311260855,1.7380932604282862e-06
1764756299,1764756311276480,2.416090637780144e-06
1764756299,1764756311292105,2.177285523430328e-06
1764756299,1764756311307730,1.1166529247930157e-06
1764756299,1764756311323355,-3.1821178936297656e-07
1764756299,1764756311338980,-1.6040849004639313e-06
1764756299,1764756311354605,-2.2719996195519343e-06
1764756299,1764756311370230,-2.0235934243828524e-06
1764756299,1764756311385855,-9.53844164541806e-07
1764756299,1764756311401480,4.896506879958906e-07
1764756299,1764756311417105,1.7836657661973732e-06
1764756299,1764756311432730,2.4592338832007954e-06
1764756299,1764756311448355,2.2179931420396315e-06
1764756299,1764756311463980,1.1549220744200284e-06
1764756299,1764756311479605,-2.8237982974133047e-07
1764756299,1764756311495230,-1.5706849580965354e-06
1764756299,1764756311510855,-2.2410226847568993e-06
1764756299,1764756311526480,-1.9950275600422174e-06
1764756299,1764756311542105,-9.276736818719655e-07
1764756299,1764756311557730,5.134451157573494e-07
1764756299,1764756311573355,1.8051067627311568e-06
1764756299,1764756311588980,2.478347141732229e-06
1764756299,1764756311604605,2.234807197964983e-06
1764756299,1764756311620230,1.16946876005386e-06
1764756299,1764756311635855,-2.7006606728718907e-07
1764756299,1764756311651480,-1.560567056912987e-06
1764756299,1764756311667105,-2.2330611955112545e-06
1764756299,1764756311682730,-1.9891804186045192e-06
1764756299,1764756311698355,-9.238966072189214e-07
1764756299,1764756311713980,5.151985078555299e-07
1764756299,1764756311729605,1.8048848460239242e-06
1764756299,1764756311745230,2.476200279488694e-06
1764756299,1764756311760855,2.230787458756822e-06
1764756299,1764756311776480,1.1636294630079647e-06
1764756299,1764756311792105,-2.7766981247623335e-07
1764756299,1764756311807730,-1.5698786910434137e-06
1764756299,1764756311823355,-2.244023107778048e-06
1764756299,1764756311838980,-2.0017334918520646e-06
1764756299,1764756311854605,-9.379809853271581e-07
1764756299,1764756311870230,4.996435336579452e-07
1764756299,1764756311885855,1.7879209508464555e-06
1764756299,1764756311901480,2.457889650031575e-06
1764756299,1764756311917105,2.2111928501544753e-06
1764756299,1764756311932730,1.1428141988290008e-06
1764756299,1764756311948355,-2.9964215286781837e-07
1764756299,1764756311963980,-1.5929442724882392e-06
1764756299,1764756311979605,-2.268117668791092e-06
1764756299,1764756311995230,-2.0267930267436896e-06
1764756299,1764756312010855,-9.639414884077269e-07
1764756299,1764756312026480,4.728457554392662e-07
1764756299,1764756312042105,1.760349277901696e-06
1764756299,1764756312057730,2.4296070932905423e-06
1764756299,1764756312073355,2.1822622784384293e-06
1764756299,1764756312088980,1.113297912525013e-06
1764756299,1764756312104605,-3.296827628673782e-07
1764756299,1764756312120230,-1.6234486110988655e-06
1764756299,1764756312135855,-2.2990261641098186e-06
1764756299,1764756312151480,-2.058046675301739e-06
1764756299,1764756312167105,-9.954823099178611e-07
1764756299,1764756312182730,4.4107480334787397e-07
1764756299,1764756312198355,1.728404072309786e-06
1764756299,1764756312213980,2.3975424028321868e-06
1764756299,1764756312229605,2.15013142224052e-06
1764756299,1764756312245230,1.0811530728460639e-06
1764756299,1764756312260855,-3.61790597480649e-07
1764756299,1764756312276480,-1.6554698731852113e-06
1764756299,1764756312292105,-2.3309125936066266e-06
1764756299,1764756312307730,-2.089751433231868e-06
1764756299,1764756312323355,-1.02696003523306e-06
1764756299,1764756312338980,4.098679085018375e-07
1764756299,1764756312354605,1.6975102425931254e-06
1764756299,1764756312370230,2.367002252867678e-06
1764756299,1764756312385855,2.1199839466135018e-06
1764756299,1764756312401480,1.0514356745261466e-06
1764756299,1764756312417105,-3.9104207871787366e-07
1764756299,1764756312432730,-1.6842210470713326e-06
1764756299,1764756312448355,-2.359130803597509e-06
1764756299,1764756312463980,-2.117405756507651e-06
1764756299,1764756312479605,-1.054021367963287e-06
1764756299,1764756312495230,3.834271069536044e-07
1764756299,1764756312510855,1.6717159496693057e-06
1764756299,1764756312526480,2.3418788259732537e-06
1764756299,1764756312542105,2.0955542368028546e-06
1764756299,1764756312557730,1.0277207138642552e-06
1764756299,1764756312573355,-4.1402296346859657e-07
1764756299,1764756312588980,-1.7064502344510402e-06
1764756299,1764756312604605,-2.38059237744892e-06
1764756299,1764756312620230,-2.138085392289213e-06
1764756299,1764756312635855,-1.0739061053754995e-06
1764756299,1764756312651480,3.643485797510948e-07
1764756299,1764756312667105,1.6534532960577053e-06
1764756299,1764756312682730,2.3244401745614596e-06
1764756299,1764756312698355,2.0789461814274546e-06
1764756299,1764756312713980,1.0119483704329468e-06
1764756299,1764756312729605,-4.289559001335874e-07
1764756299,1764756312745230,-1.720541490612959e-06
1764756299,1764756312760855,-2.3938409867696464e-06
1764756299,1764756312776480,-2.1504918095160974e-06
1764756299,1764756312792105,-1.085472035811108e-06
1764756299,1764756312807730,3.536200665621436e-07
1764756299,1764756312823355,1.6435579937024158e-06
1764756299,1764756312838980,2.3153725123847835e-06
1764756299,1764756312854605,2.0706993382191285e-06
1764756299,1764756312870230,1.0045146154880058e-06
1764756299,1764756312885855,-4.3558526385822915e-07
1764756299,1764756312901480,-1.7263763538721832e-06
1764756299,1764756312917105,-2.398892092969618e-06
1764756299,1764756312932730,-2.1547707547142636e-06
1764756299,1764756312948355,-1.0889914392464561e-06
1764756299,1764756312963980,3.5084670457763423e-07
1764756299,1764756312979605,1.6415161780969356e-06
1764756299,1764756312995230,2.3140469238569494e-06
1764756299,1764756313010855,2.070074287985335e-06
1764756299,1764756313026480,1.0045731642094324e-06
1764756299,1764756313042105,-4.348606239545916e-07
1764756299,1764756313057730,-1.7250035853066947e-06
1764756299,1764756313073355,-2.3968898403836647e-06
1764756299,1764756313088980,-2.1521584585570963e-06
1764756299,1764756313104605,-1.0857887673410005e-06
1764756299,1764756313120230,3.546197149262298e-07
1764756299,1764756313135855,1.6458391201013e-06
1764756299,1764756313151480,2.3188993054645834e-06
1764756299,1764756313167105,2.07543507713126e-06
1764756299,1764756313182730,1.0104215562023455e-06
1764756299,1764756313198355,-4.2854611592701986e-07
1764756299,1764756313213980,-1.7182446754304692e-06
1764756299,1764756313229605,-2.3897082428447902e-06
1764756299,1764756313245230,-2.14457577385474e-06
1764756299,1764756313260855,-1.0778269370348426e-06
1764756299,1764756313276480,3.629386071679619e-07
1764756299,1764756313292105,1.6544929621886695e-06
1764756299,1764756313307730,2.3278657863556873e-06
1764756299,1764756313323355,2.0846921415795805e-06
1764756299,1764756313338980,1.0199469215876888e-06
1764756299,1764756313354605,-4.1877416379065835e-07
1764756299,1764756313370230,-1.7082477370422566e-06
1764756299,1764756313385855,-2.3795080323907314e-06
1764756299,1764756313401480,-2.1341936644603265e-06
1764756299,1764756313417105,-1.067283960765053e-06
1764756299,1764756313432730,3.7362158877840557e-07
1764756299,1764756313448355,1.6652955991958152e-06
1764756299,1764756313463980,2.338768126719515e-06
1764756299,1764756313479605,2.095674517477164e-06
1764756299,1764756313495230,1.0309902336302912e-06
1764756299,1764756313510855,-4.0768901499177446e-07
1764756299,1764756313526480,-1.6971392824416398e-06
1764756299,1764756313542105,-2.3683942345087416e-06
1764756299,1764756313557730,-2.123092372130486e-06
1764756299,1764756313573355,-1.0562124543866958e-06
1764756299,1764756313588980,3.846466540835536e-07
1764756299,1764756313604605,1.6762580798967974e-06
1764756299,1764756313620230,2.3496525045629824e-06
1764756299,1764756313635855,2.1064654447400244e-06
1764756299,1764756313651480,1.041673158397316e-06
1764756299,1764756313667105,-3.971280193582061e-07
1764756299,1764756313682730,-1.6867137446752167e-06
1764756299,1764756313698355,-2.358117171752383e-06
1764756299,1764756313713980,-2.1129758351889905e-06
1764756299,1764756313729605,-1.0462681530043483e-06
1764756299,1764756313745230,3.9440755017494666e-07
1764756299,1764756313760855,1.6858248272910714e-06
1764756299,1764756313776480,2.359014843023033e-06
1764756299,1764756313792105,2.1156135971978074e-06
1764756299,1764756313807730,1.0505980299058137e-06
1764756299,1764756313823355,-3.8843501215524157e-07
1764756299,1764756313838980,-1.678260559856426e-06
1764756299,1764756313854605,-2.3499110284319613e-06
1764756299,1764756313870230,-2.1050234408903634e-06
1764756299,1764756313885855,-1.0385758741904283e-06
1764756299,1764756313901480,4.018342281142395e-07
1764756299,1764756313917105,1.6929809589782963e-06
1764756299,1764756313932730,2.3658958525629714e-06
1764756299,1764756313948355,2.122215619237977e-06
1764756299,1764756313963980,1.0569177675279207e-06
1764756299,1764756313979605,-3.824003442787216e-07
1764756299,1764756313995230,-1.6725132354622474e-06
1764756299,1764756314010855,-2.3444529233529465e-06
1764756299,1764756314026480,-2.099855919368565e-06
1764756299,1764756314042105,-1.0336996183468727e-06
1764756299,1764756314057730,4.0641882037562027e-07
1764756299,1764756314073355,1.6972738876575022e-06
1764756299,1764756314088980,2.3698978566244477e-06
1764756299,1764756314104605,2.1259279492369387e-06
1764756299,1764756314120230,1.060341901393258e-06
1764756299,1764756314135855,-3.792624170273484e-07
1764756299,1764756314151480,-1.669659241088084e-06
1764756299,1764756314167105,-2.3418801902153064e-06
1764756299,1764756314182730,-2.0975614916096674e-06
1764756299,1764756314198355,-1.0316803127352614e-06
1764756299,1764756314213980,4.0816678392729955e-07
1764756299,1764756314229605,1.6987546587188262e-06
1764756299,1764756314245230,2.3711156700301217e-06
1764756299,1764756314260855,2.1268876935209846e-06
1764756299,1764756314276480,1.0610483514028601e-06
1764756299,1764756314292105,-3.788038895891077e-07
1764756299,1764756314307730,-1.6694430087227374e-06
1764756299,1764756314323355,-2.341900426472421e-06
1764756299,1764756314338980,-2.097812057400006e-06
1764756299,1764756314354605,-1.032154614222236e-06
1764756299,1764756314370230,4.0747511320660124e-07
1764756299,1764756314385855,1.697852212600992e-06
1764756299,1764756314401480,2.370009269725415e-06
1764756299,1764756314417105,2.125583932865993e-06
1764756299,1764756314432730,1.059554506355198e-06
1764756299,1764756314448355,-3.8048068518037326e-07
1764756299,1764756314463980,-1.6712955357434112e-06
1764756299,1764756314479605,-2.343921096326085e-06
1764756299,1764756314495230,-2.0999937078158837e-06
1764756299,1764756314510855,-1.0344898555558757e-06
1764756299,1764756314526480,4.049939263950364e-07
1764756299,1764756314542105,1.6952326404862106e-06
1764756299,1764756314557730,2.3672589577472536e-06
1764756299,1764756314573355,2.122710611729417e-06
1764756299,1764756314588980,1.0565656793914968e-06
1764756299,1764756314604605,-3.835775430616195e-07
1764756299,1764756314620230,-1.6744928643674939e-06
1764756299,1764756314635855,-2.347211420783424e-06
1764756299,1764756314651480,-2.103369297401514e-06
1764756299,1764756314667105,-1.0379430932516698e-06
1764756299,1764756314682730,4.0147025970327377e-07
1764756299,1764756314698355,1.6916459344429313e-06
1764756299,1764756314713980,2.3636166588403285e-06
1764756299,1764756314729605,2.1190198822296225e-06
1764756299,1764756314745230,1.0528335678827716e-06
1764756299,1764756314760855,-3.8734407326046494e-07
1764756299,1764756314776480,-1.6782869352027774e-06
1764756299,1764756314792105,-2.351026523683686e-06
1764756299,1764756314807730,-2.1071991795906797e-06
1764756299,1764756314823355,-1.0417816156405024e-06
1764756299,1764756314838980,3.9762952042110555e-07
1764756299,1764756314854605,1.6878090036698268e-06
1764756299,1764756314870230,2.359789505135268e-06
1764756299,1764756314885855,2.115208189934492e-06
1764756299,1764756314901480,1.049042793965782e-06
1764756299,1764756314917105,-3.911085570962314e-07
1764756299,1764756314932730,-1.6820198425193666e-06
1764756299,1764756314948355,-2.354722710151691e-06
1764756299,1764756314963980,-2.1108537566760788e-06
1764756299,1764756314979605,-1.0453896948092734e-06
1764756299,1764756314995230,3.9407248664247163e-07
1764756299,1764756315010855,1.6843073353811633e-06
1764756299,1764756315026480,2.3563470676890574e-06
1764756299,1764756315042105,2.111828962370055e-06
1764756299,1764756315057730,1.0457306416356005e-06
1764756299,1764756315073355,-3.943499962133501e-07
1764756299,1764756315088980,-1.6851872715051286e-06
1764756299,1764756315104605,-2.35781294577464e-06
1764756299,1764756315120230,-2.113863502017921e-06
1764756299,1764756315135855,-1.0483161076990655e-06
1764756299,1764756315151480,3.912317936283216e-07
1764756299,1764756315167105,1.6815547496662475e-06
1764756299,1764756315182730,2.3536847493232926e-06
1764756299,1764756315198355,2.10925895771652e-06
1764756299,1764756315213980,1.0432547696836991e-06
1764756299,1764756315229605,-3.96730285956437e-07
1764756299,1764756315245230,-1.6874706716407673e-06
1764756299,1764756315260855,-2.3599984615430003e-06
1764756299,1764756315276480,-2.115950337611139e-06
1764756299,1764756315292105,-1.0503036946829525e-06
1764756299,1764756315307730,3.893440521096636e-07
1764756299,1764756315323355,1.6797672515167505e-06
1764756299,1764756315338980,2.3519978640251793e-06
1764756299,1764756315354605,2.1076725715829525e-06
1764756299,1764756315370230,1.0417685416541644e-06
1764756299,1764756315385855,-3.9811646956877667e-07
1764756299,1764756315401480,-1.688757151896425e-06
1764756299,1764756315417105,-2.3611855795024894e-06
1764756299,1764756315432730,-2.11703854802181e-06
1764756299,1764756315448355,-1.0512935659789946e-06
1764756299,1764756315463980,3.884515820118395e-07
1764756299,1764756315479605,1.6789712162790238e-06
1764756299,1764756315495230,2.3512970983574633e-06
1764756299,1764756315510855,2.1070661659905454e-06
1764756299,1764756315526480,1.041255018208176e-06
1764756299,1764756315542105,-3.9853878774920304e-07
1764756299,1764756315557730,-1.6890899132704362e-06
1764756299,1764756315573355,-2.3614306883246172e-06
1764756299,1764756315588980,-2.117197936968296e-06
1764756299,1764756315604605,-1.051369395099755e-06
1764756299,1764756315620230,3.8845726635372557e-07
1764756299,1764756315635855,1.6790562540336396e-06
1764756299,1764756315651480,2.3514592157880543e-06
1764756299,1764756315667105,2.1073026346130064e-06
1764756299,1764756315682730,1.0415637916594278e-06
1764756299,1764756315698355,-3.981598695190769e-07
1764756299,1764756315713980,-1.688643237685028e-06
1764756299,1764756315729605,-2.3609184154338436e-06
1764756299,1764756315745230,-2.1166229089431e-06
1764756299,1764756315760855,-1.0507341130505665e-06
1764756299,1764756315776480,3.8915030131647654e-07
1764756299,1764756315792105,1.6798045407995232e-06
1764756299,1764756315807730,2.3522602532466408e-06
1764756299,1764756315823355,2.108153921653866e-06
1764756299,1764756315838980,1.0424627134852926e-06
1764756299,1764756315854605,-3.9721606981402147e-07
1764756299,1764756315870230,-1.6876572317414684e-06
1764756299,1764756315885855,-2.3598929601575946e-06
1764756299,1764756315901480,-2.1155603917577537e-06
1764756299,1764756315917105,-1.049637035066553e-06
1764756299,1764756315932730,3.902792968801805e-07
1764756299,1764756315948355,1.6809628959890688e-06
1764756299,1764756315963980,2.353445324843051e-06
1764756299,1764756315979605,2.109363549607224e-06
1764756299,1764756315995230,1.0436945103720063e-06
1764756299,1764756316010855,-3.959644914175442e-07
1764756299,1764756316026480,-1.6863882592588197e-06
1764756299,1764756316042105,-2.3586089810123667e-06
1764756299,1764756316057730,-2.114263679686701e-06
1764756299,1764756316073355,-1.0483299774932675e-06
1764756299,1764756316088980,3.915945967492007e-07
1764756299,1764756316104605,1.6822840507302317e-06
1764756299,1764756316120230,2.3547702312498586e-06
1764756299,1764756316135855,2.1106900476297596e-06
1764756299,1764756316151480,1.0450203262735158e-06
1764756299,1764756316167105,-3.9464151768697775e-07
1764756299,1764756316182730,-1.6850700603754376e-06
1764756299,1764756316198355,-2.35729748965241e-06
1764756299,1764756316213980,-2.1129610559000866e-06
1764756299,1764756316229605,-1.0470379265825613e-06
1764756299,1764756316245230,3.928741421077575e-07
1764756299,1764756316260855,1.683549498920911e-06
1764756299,1764756316276480,2.3560198769700946e-06
1764756299,1764756316292105,2.111921958203311e-06
1764756299,1764756316307730,1.0462329100846546e-06
1764756299,1764756316323355,-3.9344965330201376e-07
1764756299,1764756316338980,-1.68390033650212e-06
1764756299,1764756316354605,-2.356151298954501e-06
1764756299,1764756316370230,-2.111839421559125e-06
1764756299,1764756316385855,-1.0459420991537627e-06
1764756299,1764756316401480,3.9394313944285386e-07
1764756299,1764756316417105,1.6845906429807656e-06
1764756299,1764756316432730,2.3570323719468433e-06
1764756299,1764756316448355,2.1129051219759276e-06
1764756299,1764756316463980,1.0471859468452749e-06
1764756299,1764756316479605,-3.9252753936125373e-07
1764756299,1764756316495230,-1.6830098275022465e-06
1764756299,1764756316510855,-2.3552929633297026e-06
1764756299,1764756316526480,-2.1110140551172663e-06
1764756299,1764756316542105,-1.0451502703290316e-06
1764756299,1764756316557730,3.947010895899439e-07
1764756299,1764756316573355,1.6853143733897014e-06
1764756299,1764756316588980,2.3577213141834363e-06
1764756299,1764756316604605,2.113558821292827e-06
1764756299,1764756316620230,1.047804175868805e-06
1764756299,1764756316635855,-3.919447806310927e-07
1764756299,1764756316651480,-1.6824625390654546e-06
1764756299,1764756316667105,-2.35478114518628e-06
1764756299,1764756316682730,-2.1105374798935372e-06
1764756299,1764756316698355,-1.0447088243381586e-06
1764756299,1764756316713980,3.951076337216364e-07
1764756299,1764756316729605,1.6856862430358888e-06
1764756299,1764756316745230,2.3580589640914695e-06
1764756299,1764756316760855,2.113862592523219e-06
1764756299,1764756316776480,1.0480747505425825e-06
1764756299,1764756316792105,-3.917069477665791e-07
1764756299,1764756316807730,-1.682256993262854e-06
1764756299,1764756316823355,-2.354607204324566e-06
1764756299,1764756316838980,-2.1103944618516834e-06
1764756299,1764756316854605,-1.0445961606819765e-06
1764756299,1764756316870230,3.9519053984804486e-07
1764756299,1764756316885855,1.685740016910131e-06
1764756299,1764756316901480,2.3580842025694437e-06
1764756299,1764756316917105,2.113860091412789e-06
1764756299,1764756316932730,1.0480453056516126e-06
1764756299,1764756316948355,-3.91762540630225e-07
1764756299,1764756316963980,-1.6823380519781495e-06
1764756299,1764756316979605,-2.3547131604573224e-06
1764756299,1764756316995230,-2.1105242922203615e-06
1764756299,1764756317010855,-1.0447491831655498e-06
1764756299,1764756317026480,3.950150357923121e-07
1764756299,1764756317042105,1.6855428839335218e-06
1764756299,1764756317057730,2.357866378588369e-06
1764756299,1764756317073355,2.1136227132956265e-06
1764756299,1764756317088980,1.0477888281457126e-06
1764756299,1764756317104605,-3.92037378560417e-07
1764756299,1764756317120230,-1.6826303408379317e-06
1764756299,1764756317135855,-2.3550219339085743e-06
1764756299,1764756317151480,-2.1108489818288945e-06
1764756299,1764756317167105,-1.0450887657498242e-06
1764756299,1764756317182730,3.946614697269979e-07
1764756299,1764756317198355,1.6851762438818696e-06
1764756299,1764756317213980,2.3574875740450807e-06
1764756299,1764756317229605,2.1132323126948904e-06
1764756299,1764756317245230,1.0473877409822308e-06
1764756299,1764756317260855,-3.924481575268146e-07
1764756299,1764756317276480,-1.6830498452691245e-06
1764756299,1764756317292105,-2.3554493964184076e-06
1764756299,1764756317307730,-2.1112834929226665e-06
1764756299,1764756317323355,-1.045529529619671e-06
1764756299,1764756317338980,3.942153909974877e-07
1764756299,1764756317354605,1.6847257029439788e-06
1764756299,1764756317370230,2.3570335088152206e-06
1764756299,1764756317385855,2.112775518980925e-06
1764756299,1764756317401480,1.0469293556525372e-06
1764756299,1764756317417105,-3.929074239295005e-07
1764756299,1764756317432730,-1.6835092537803575e-06
1764756299,1764756317448355,-2.3559080091217766e-06
1764756299,1764756317463980,-2.1117405140103074e-06
1764756299,1764756317479605,-1.0459843906573951e-06
1764756299,1764756317495230,3.9376328686557827e-07
1764756299,1764756317510855,1.6842769809954916e-06
1764756299,1764756317526480,2.3565887659060536e-06
1764756299,1764756317542105,2.1123355509189423e-06
1764756299,1764756317557730,1.0464946171850897e-06
1764756299,1764756317573355,-3.933363927899336e-07
1764756299,1764756317588980,-1.6839319414430065e-06
1764756299,1764756317604605,-2.3563238755741622e-06
1764756299,1764756317620230,-2.112149104505079e-06
1764756299,1764756317635855,-1.0463849093866884e-06
1764756299,1764756317651480,3.933713799142424e-07
1764756299,1764756317667105,1.6838940837260452e-06
1764756299,1764756317682730,2.3562151909573004e-06
1764756299,1764756317698355,2.111971753038233e-06
1764756299,1764756317713980,1.0461410511197755e-06
1764756299,1764756317729605,-3.9367932913592085e-07
1764756299,1764756317745230,-1.6842640206959913e-06
1764756299,1764756317760855,-2.356644927203888e-06
1764756299,1764756317776480,-2.1124587874510325e-06
1764756299,1764756317792105,-1.0466831099620322e-06
1764756299,1764756317807730,3.9308469013121794e-07
1764756299,1764756317823355,1.6836190752655966e-06
1764756299,1764756317838980,2.355951892241137e-06
1764756299,1764756317854605,2.1117200503795175e-06
1764756299,1764756317870230,1.0459008308316697e-06
1764756299,1764756317885855,-3.939080102099979e-07
1764756299,1764756317901480,-1.684481048869202e-06
1764756299,1764756317917105,-2.3568504730064888e-06
1764756299,1764756317932730,-2.112652964569861e-06
1764756299,1764756317948355,-1.046866145770764e-06
1764756299,1764756317963980,3.9291293774113e-07
1764756299,1764756317979605,1.6834585494507337e-06
1764756299,1764756317995230,2.355802507736371e-06
1764756299,1764756318010855,2.111581807184848e-06
1764756299,1764756318026480,1.0457736152602592e-06
1764756299,1764756318042105,-3.940243971101154e-07
1764756299,1764756318057730,-1.684586777628283e-06
1764756299,1764756318073355,-2.356945515202824e-06
1764756299,1764756318088980,-2.1127373202034505e-06
1764756299,1764756318104605,-1.0469398148416076e-06
1764756299,1764756318120230,3.9284967101593793e-07
1764756299,1764756318135855,1.6834055713843554e-06
1764756299,1764756318151480,2.3557597614853876e-06
1764756299,1764756318167105,2.1115492927492596e-06
1764756299,1764756318182730,1.0457513326400658e-06
1764756299,1764756318198355,-3.9403653318004217e-07
1764756299,1764756318213980,-1.6845889376781997e-06
1764756299,1764756318229605,-2.3569380118715344e-06
1764756299,1764756318245230,-2.112720721925143e-06
1764756299,1764756318260855,-1.046914348989958e-06
1764756299,1764756318276480,3.928837770672544e-07
1764756299,1764756318292105,1.6834479765748256e-06
1764756299,1764756318307730,2.355810238441336e-06
1764756299,1764756318323355,2.111607500410173e-06
1764756299,1764756318338980,1.045817043632269e-06
1764756299,1764756318354605,-3.939637167604815e-07
1764756299,1764756318370230,-1.6845092432049569e-06
1764756299,1764756318385855,-2.356851609874866e-06
1764756299,1764756318401480,-2.1126279534655623e-06
1764756299,1764756318417105,-1.0468154414411401e-06
1764756299,1764756318432730,3.9298842580137716e-07
1764756299,1764756318448355,1.6835580254337401e-06
1764756299,1764756318463980,2.3559252895211102e-06
1764756299,1764756318479605,2.1117270989634562e-06
1764756299,1764756318495230,1.04594073491171e-06
1764756299,1764756318510855,-3.9383607486342953e-07
1764756299,1764756318526480,-1.6843780485942261e-06
1764756299,1764756318542105,-2.356717232032679e-06
1764756299,1764756318557730,-2.1124906197655946e-06
1764756299,1764756318573355,-1.0466753792570671e-06
1764756299,1764756318588980,3.931311027827178e-07
1764756299,1764756318604605,1.683703089838673e-06
1764756299,1764756318620230,2.3560726276627975e-06
1764756299,1764756318635855,2.1118764834682224e-06
1764756299,1764756318651480,1.0460917110322043e-06
1764756299,1764756318667105,-3.936839334528486e-07
1764756299,1764756318682730,-1.6842250261106528e-06
1764756299,1764756318698355,-2.3565635274280794e-06
1764756299,1764756318713980,-2.112336460413644e-06
1764756299,1764756318729605,-1.0465213335919543e-06
1764756299,1764756318745230,3.93284778965608e-07
1764756299,1764756318760855,1.6838561123222462e-06
1764756299,1764756318776480,2.3562245132779935e-06
1764756299,1764756318792105,2.112027004841366e-06
1764756299,1764756318807730,1.0462409818501328e-06
1764756299,1764756318823355,-3.935360552986822e-07
1764756299,1764756318838980,-1.6840787111505051e-06
1764756299,1764756318854605,-2.3564189177704975e-06
1764756299,1764756318870230,-2.1121934423717903e-06
1764756299,1764756318885855,-1.0463800208526663e-06
1764756299,1764756318901480,3.9342421587207355e-07
1764756299,1764756318917105,1.6839935597090516e-06
1764756299,1764756318932730,2.3563598006148823e-06
1764756299,1764756318948355,2.1121597910678247e-06
1764756299,1764756318963980,1.0463710395924863e-06
1764756299,1764756318979605,-3.9340881130556227e-07
1764756299,1764756318995230,-1.6839544514368754e-06
1764756299,1764756319010855,-2.3562979549751617e-06
1764756299,1764756319026480,-2.1120761175552616e-06
1764756299,1764756319042105,-1.0462663340149447e-06
1764756299,1764756319057730,3.935341794658598e-07
1764756299,1764756319073355,1.6840996295286459e-06
1764756299,1764756319088980,2.3564621187688317e-06
1764756299,1764756319104605,2.112258471242967e-06
1764756299,1764756319120230,1.0464657407283084e-06
1764756299,1764756319135855,-3.9331811763076985e-07
1764756299,1764756319151480,-1.6838677083796938e-06
1764756299,1764756319167105,-2.356214963583625e-06
1764756299,1764756319182730,-2.1119969915162073e-06
1764756299,1764756319198355,-1.0461911870152107e-06
1764756299,1764756319213980,3.936051484743075e-07
1764756299,1764756319229605,1.6841664773892262e-06
1764756299,1764756319245230,2.356524873903254e-06
1764756299,1764756319260855,2.1123171336512314e-06
1764756299,1764756319276480,1.0465205377840903e-06
1764756299,1764756319292105,-3.932672996143083e-07
1764756299,1764756319307730,-1.6838208694025525e-06
1764756299,1764756319323355,-2.3561722173326416e-06
1764756299,1764756319338980,-2.1119581106177066e-06
1764756299,1764756319354605,-1.0461558304086793e-06
1764756299,1764756319370230,3.9363715131912613e-07
1764756299,1764756319385855,1.6841952401591698e-06
1764756299,1764756319401480,2.3565503397549037e-06
1764756299,1764756319417105,2.1123391888977494e-06
1764756299,1764756319432730,1.0465390687386389e-06
1764756299,1764756319448355,-3.93252093999763e-07
1764756299,1764756319463980,-1.6838089322845917e-06
1764756299,1764756319479605,-2.3561633497592993e-06
1764756299,1764756319495230,-2.1119524262758205e-06
1764756299,1764756319510855,-1.0461532156114117e-06
1764756299,1764756319526480,3.936366397283564e-07
1764756299,1764756319542105,1.6841916021803627e-06
1764756299,1764756319557730,2.356543745918316e-06
1764756299,1764756319573355,2.1123298665770562e-06
1764756299,1764756319588980,1.0465270179338404e-06
1764756299,1764756319604605,-3.9326678802353854e-07
1764756299,1764756319620230,-1.6838262126839254e-06
1764756299,1764756319635855,-2.356183131269063e-06
1764756299,1764756319651480,-2.111974708896014e-06
1764756299,1764756319667105,-1.0461781130288728e-06
1764756299,1764756319682730,3.9360932646559377e-07
1764756299,1764756319698355,1.684162043602555e-06
1764756299,1764756319713980,2.3565119136037538e-06
1764756299,1764756319729605,2.1122957605257398e-06
1764756299,1764756319745230,1.0464910928931204e-06
1764756299,1764756319760855,-3.9330447521024325e-07
1764756299,1764756319776480,-1.683865548329777e-06
1764756299,1764756319792105,-2.3562240585306427e-06
1764756299,1764756319807730,-2.112016773025971e-06
1764756299,1764756319823355,-1.0462210866535315e-06
1764756299,1764756319838980,3.9356547176794265e-07
1764756299,1764756319854605,1.6841173646753305e-06
1764756299,1764756319870230,2.3564666662423406e-06
1764756299,1764756319885855,2.1122500584169757e-06
1764756299,1764756319901480,1.0464450497238431e-06
1764756299,1764756319917105,-3.933507741749054e-07
1764756299,1764756319932730,-1.6839120462464052e-06
1764756299,1764756319948355,-2.3562706701341085e-06
1764756299,1764756319963980,-2.1120636120031122e-06
1764756299,1764756319979605,-1.0462680393175106e-06
1764756299,1764756319995230,3.9351851910396363e-07
1764756299,1764756320010855,1.6840705256981892e-06
1764756299,1764756320026480,2.3564198272651993e-06
1764756299,1764756320042105,2.1122032194398344e-06
1764756299,1764756320057730,1.046398097059864e-06
1764756299,1764756320073355,-3.933979257908504e-07
1764756299,1764756320088980,-1.6839593399708974e-06
1764756299,1764756320104605,-2.3563179638586007e-06
1764756299,1764756320120230,-2.112110678353929e-06
1764756299,1764756320135855,-1.0463149919814896e-06
1764756299,1764756320151480,3.9347182223536947e-07
1764756299,1764756320167105,1.6840241414683987e-06
1764756299,1764756320182730,2.3563738977827597e-06
1764756299,1764756320198355,2.112157972078421e-06
1764756299,1764756320213980,1.0463538728799904e-06
1764756299,1764756320229605,-3.934410699457658e-07
1764756299,1764756320245230,-1.6840012904140167e-06
1764756299,1764756320260855,-2.356358663746505e-06
1764756299,1764756320276480,-2.1121500139997806e-06
1764756299,1764756320292105,-1.0463530770721263e-06
1764756299,1764756320307730,3.934348455914005e-07
1764756299,1764756320323355,1.6839882164276787e-06
1764756299,1764756320338980,2.356339109610417e-06
1764756299,1764756320354605,2.1121243207744556e-06
1764756299,1764756320370230,1.0463211310707266e-06
1764756299,1764756320385855,-3.934727033083618e-07
1764756299,1764756320401480,-1.684031758486526e-06
1764756299,1764756320417105,-2.3563882223243127e-06
1764756299,1764756320432730,-2.112178890456562e-06
1764756299,1764756320448355,-1.0463809303473681e-06
1764756299,1764756320463980,3.934081007628265e-07
1764756299,1764756320479605,1.6839626368891913e-06
1764756299,1764756320495230,2.356314553253469e-06
1764756299,1764756320510855,2.112100901285885e-06
1764756299,1764756320526480,1.0462989621373708e-06
1764756299,1764756320542105,-3.934937353733403e-07
1764756299,1764756320557730,-1.684051767369965e-06
1764756299,1764756320573355,-2.3564070943393745e-06
1764756299,1764756320588980,-2.112196398229571e-06
1764756299,1764756320604605,-1.046397301252e-06
1764756299,1764756320620230,3.933928383048624e-07
1764756299,1764756320635855,1.6839484260344761e-06
1764756299,1764756320651480,2.356301592953969e-06
1764756299,1764756320667105,2.112089077854762e-06
1764756299,1764756320682730,1.0462883892614627e-06
1764756299,1764756320698355,-3.935030008506146e-07
1764756299,1764756320713980,-1.6840597254486056e-06
1764756299,1764756320729605,-2.3564136881759623e-06
1764756299,1764756320745230,-2.1122018551977817e-06
1764756299,1764756320760855,-1.0464016213518335e-06
1764756299,1764756320776480,3.933897687602439e-07
1764756299,1764756320792105,1.6839466070450726e-06
1764756299,1764756320807730,2.3563009108329425e-06
1764756299,1764756320823355,2.1120895326021127e-06
1764756299,1764756320838980,1.0462897535035154e-06
1764756299,1764756320854605,-3.935007555355696e-07
1764756299,1764756320870230,-1.6840565422171494e-06
1764756299,1764756320885855,-2.3564095954498043e-06
1764756299,1764756320901480,-2.112196852976922e-06
1764756299,1764756320917105,-1.0463959370099474e-06
1764756299,1764756320932730,3.9339599311460915e-07
1764756299,1764756320948355,1.6839534282553359e-06
1764756299,1764756320963980,2.3563081867905566e-06
1764756299,1764756320979605,2.1120970359334024e-06
1764756299,1764756320995230,1.046297256834805e-06
1764756299,1764756321010855,-3.9349322378257057e-07
1764756299,1764756321026480,-1.6840490388858598e-06
1764756299,1764756321042105,-2.35640231949219e-06
1764756299,1764756321057730,-2.112189804392983e-06
1764756299,1764756321073355,-1.046388774739171e-06
1764756299,1764756321088980,3.9340329749393277e-07
1764756299,1764756321104605,1.6839608178997878e-06
1764756299,1764756321120230,2.3563156901218463e-06
1764756299,1764756321135855,2.112104994012043e-06
1764756299,1764756321151480,1.0463056696607964e-06
1764756299,1764756321167105,-3.934843562092283e-07
1764756299,1764756321182730,-1.6840397165651666e-06
1764756299,1764756321198355,-2.356392542424146e-06
1764756299,1764756321213980,-2.1121795725775883e-06
1764756299,1764756321229605,-1.0463782018632628e-06
1764756299,1764756321245230,3.934141545869352e-07
1764756299,1764756321260855,1.6839719592098845e-06
1764756299,1764756321276480,2.3563270588056184e-06
1764756299,1764756321292105,2.1121165900694905e-06
1764756299,1764756321307730,1.046317720465595e-06
1764756299,1764756321323355,-3.934719359222072e-07
1764756299,1764756321338980,-1.6840269836393418e-06
1764756299,1764756321354605,-2.3563793547509704e-06
1764756299,1764756321370230,-2.1121659301570617e-06
1764756299,1764756321385855,-1.0463639910085476e-06
1764756299,1764756321401480,3.934290191409673e-07
1764756299,1764756321417105,1.6839874206198147e-06
1764756299,1764756321432730,2.356343202336575e-06
1764756299,1764756321448355,2.1121334157214733e-06
1764756299,1764756321463980,1.0463350008649286e-06
1764756299,1764756321479605,-3.9345422919723205e-07
1764756299,1764756321495230,-1.684008907432144e-06
1764756299,1764756321510855,-2.3563609374832595e-06
1764756299,1764756321526480,-2.1121472855156753e-06
1764756299,1764756321542105,-1.0463453463671613e-06
1764756299,1764756321557730,3.9344760693893477e-07
1764756299,1764756321573355,1.6840058378875256e-06
1764756299,1764756321588980,2.3563613922306104e-06
1764756299,1764756321604605,2.112151150868158e-06
1764756299,1764756321620230,1.0463522812642623e-06
1764756299,1764756321635855,-3.9343740354524925e-07
1764756299,1764756321651480,-1.6839925365275121e-06
1764756299,1764756321667105,-2.3563450213259785e-06
1764756299,1764756321682730,-2.112131824105745e-06
1764756299,1764756321698355,-1.046330339704582e-06
1764756299,1764756321713980,3.93462215697582e-07
1764756299,1764756321729605,1.6840200487422408e-06
1764756299,1764756321745230,2.356375034651137e-06
1764756299,1764756321760855,2.1121643385413336e-06
1764756299,1764756321776480,1.046365014190087e-06
1764756299,1764756321792105,-3.9342523905361304e-07
1764756299,1764756321807730,-1.6839809404700645e-06
1764756299,1764756321823355,-2.356334107389557e-06
1764756299,1764756321838980,-2.1121215922903502e-06
1764756299,1764756321854605,-1.0463206763233757e-06
1764756299,1764756321870230,3.934712822228903e-07
1764756299,1764756321885855,1.6840285752550699e-06
1764756299,1764756321901480,2.356383220103453e-06
1764756299,1764756321917105,2.112171841872623e-06
1764756299,1764756321932730,1.0463721764608636e-06
1764756299,1764756321948355,-3.934183894216403e-07
1764756299,1764756321963980,-1.6839744603203144e-06
1764756299,1764756321979605,-2.35632796830032e-06
1764756299,1764756321995230,-2.112115907948464e-06
1764756299,1764756322010855,-1.0463153330420027e-06
1764756299,1764756322026480,3.934761423352029e-07
1764756299,1764756322042105,1.684033009041741e-06
1764756299,1764756322057730,2.356387312829611e-06
1764756299,1764756322073355,2.112175934598781e-06
1764756299,1764756322088980,1.0463761555001838e-06
1764756299,1764756322104605,-3.9341460933428607e-07
1764756299,1764756322120230,-1.6839708223415073e-06
1764756299,1764756322135855,-2.3563245576951886e-06
1764756299,1764756322151480,-2.112112724717008e-06
1764756299,1764756322167105,-1.0463127182447352e-06
1764756299,1764756322182730,3.9347833080682904e-07
1764756299,1764756322198355,1.6840347143443068e-06
1764756299,1764756322213980,2.3563882223243127e-06
1764756299,1764756322229605,2.112175934598781e-06
1764756299,1764756322245230,1.046375246005482e-06
1764756299,1764756322260855,-3.934164283236896e-07
1764756299,1764756322276480,-1.6839735508256126e-06
1764756299,1764756322292105,-2.3563281956739957e-06
1764756299,1764756322307730,-2.112117272190517e-06
1764756299,1764756322323355,-1.0463179478392703e-06
1764756299,1764756322338980,3.9347236224784865e-07
1764756299,1764756322354605,1.684028120507719e-06
1764756299,1764756322370230,2.356381173740374e-06
1764756299,1764756322385855,2.112168203893816e-06
1764756299,1764756322401480,1.0463668331794906e-06
1764756299,1764756322417105,-3.934252958970319e-07
1764756299,1764756322432730,-1.6839828731463058e-06
1764756299,1764756322448355,-2.3563377453683643e-06
1764756299,1764756322463980,-2.1121268218848854e-06
1764756299,1764756322479605,-1.0463277249073144e-06
1764756299,1764756322495230,3.934623862278386e-07
1764756299,1764756322510855,1.684017888692324e-06
1764756299,1764756322526480,2.3563707145513035e-06
1764756299,1764756322542105,2.1121577447047457e-06
1764756299,1764756322557730,1.0463561466167448e-06
1764756299,1764756322573355,-3.9343638036370976e-07
1764756299,1764756322588980,-1.683994241830078e-06
1764756299,1764756322604605,-2.356349341425812e-06
1764756299,1764756322620230,-2.112138417942333e-06
1764756299,1764756322635855,-1.046339320964762e-06
1764756299,1764756322651480,3.9345087543551927e-07
1764756299,1764756322667105,1.6840065200085519e-06
1764756299,1764756322682730,2.356359573241207e-06
1764756299,1764756322698355,2.112147058142e-06
1764756299,1764756322713980,1.0463459148013499e-06
1764756299,1764756322729605,-3.9344610058833496e-07
1764756299,1764756322745230,-1.6840034504639334e-06
1764756299,1764756322760855,-2.356358208999154e-06
1764756299,1764756322776480,-2.1121472855156753e-06
1764756299,1764756322792105,-1.0463480748512666e-06
1764756299,1764756322807730,3.934422352358524e-07
1764756299,1764756322823355,1.6839979934957228e-06
1764756299,1764756322838980,2.3563511604152154e-06
1764756299,1764756322854605,2.1121386453160085e-06
1764756299,1764756322870230,1.0463375019753585e-06
1764756299,1764756322885855,-3.9345451341432636e-07
1764756299,1764756322901480,-1.6840118632899248e-06
1764756299,1764756322917105,-2.3563666218251456e-06
1764756299,1764756322932730,-2.1121556983416667e-06
1764756299,1764756322948355,-1.046356487677258e-06
1764756299,1764756322963980,3.93433822409861e-07
1764756299,1764756322979605,1.6839895806697314e-06
1764756299,1764756322995230,2.356342747589224e-06
1764756299,1764756323010855,2.112130232490017e-06
1764756299,1764756323026480,1.046329089149367e-06
1764756299,1764756323042105,-3.9346292624031776e-07
1764756299,1764756323057730,-1.6840202761159162e-06
1764756299,1764756323073355,-2.356375034651137e-06
1764756299,1764756323088980,-2.112164111167658e-06
1764756299,1764756323104605,-1.0463649005032494e-06
1764756299,1764756323120230,3.934254095838696e-07
1764756299,1764756323135855,1.68398116784374e-06
1764756299,1764756323151480,2.3563343347632326e-06
1764756299,1764756323167105,2.1121218196640257e-06
1764756299,1764756323182730,1.0463206763233757e-06
1764756299,1764756323198355,-3.9347133906630916e-07
1764756299,1764756323213980,-1.6840286889419076e-06
1764756299,1764756323229605,-2.3563834474771284e-06
1764756299,1764756323245230,-2.1121725239936495e-06
1764756299,1764756323260855,-1.0463733133292408e-06
1764756299,1764756323276480,3.934169967578782e-07
1764756299,1764756323292105,1.6839727550177486e-06
1764756299,1764756323307730,2.3563259219372412e-06
1764756299,1764756323323355,2.1121134068380343e-06
1764756299,1764756323338980,1.0463122634973843e-06
1764756299,1764756323354605,-3.9347975189230056e-07
1764756299,1764756323370230,-1.684037101767899e-06
1764756299,1764756323385855,-2.3563918603031198e-06
1764756299,1764756323401480,-2.112180936819641e-06
1764756299,1764756323417105,-1.0463818398420699e-06
1764756299,1764756323432730,3.934083565582114e-07
1764756299,1764756323448355,1.683964001131244e-06
1764756299,1764756323463980,2.356317054363899e-06
1764756299,1764756323479605,2.112104539264692e-06
1764756299,1764756323495230,1.046303395924042e-06
1764756299,1764756323510855,-3.9348861946564284e-07
1764756299,1764756323526480,-1.6840459693412413e-06
1764756299,1764756323542105,-2.3564005005027866e-06
1764756299,1764756323557730,-2.1121893496456323e-06
1764756299,1764756323573355,-1.0463897979207104e-06
1764756299,1764756323588980,3.934008248052123e-07
1764756299,1764756323604605,1.6839569525473053e-06
1764756299,1764756323620230,2.3563106879009865e-06
1764756299,1764756323635855,2.112098854922806e-06
1764756299,1764756323651480,1.0462986210768577e-06
1764756299,1764756323667105,-3.934923427095782e-07
1764756299,1764756323682730,-1.6840485841385089e-06
1764756299,1764756323698355,-2.35640231949219e-06
1764756299,1764756323713980,-2.112190259140334e-06
1764756299,1764756323729605,-1.0463896842338727e-06
1764756299,1764756323745230,3.9340196167358954e-07
1764756299,1764756323760855,1.683959112597222e-06
1764756299,1764756323776480,2.3563136437587673e-06
1764756299,1764756323792105,2.1121022655279376e-06
1764756299,1764756323807730,1.046302600116178e-06
1764756299,1764756323823355,-3.934879089229071e-07
1764756299,1764756323838980,-1.6840436956044869e-06
1764756299,1764756323854605,-2.3563968625239795e-06
1764756299,1764756323870230,-2.112184120051097e-06
1764756299,1764756323885855,-1.0463830903972848e-06
1764756299,1764756323901480,3.9340906710094714e-07
1764756299,1764756323917105,1.6839667296153493e-06
1764756299,1764756323932730,2.356321601837408e-06
1764756299,1764756323948355,2.112110678353929e-06
1764756299,1764756323963980,1.0463114676895202e-06
1764756299,1764756323979605,-3.934785866022139e-07
1764756299,1764756323995230,-1.6840340322232805e-06
1764756299,1764756324010855,-2.3563866307085846e-06
1764756299,1764756324026480,-2.1121734334883513e-06
1764756299,1764756324042105,-1.0463719490871881e-06
1764756299,1764756324057730,3.9342057789326645e-07
1764756299,1764756324073355,1.6839785530464724e-06
1764756299,1764756324088980,2.3563338800158817e-06
1764756299,1764756324104605,2.1121236386534292e-06
1764756299,1764756324120230,1.0463247690495336e-06
1764756299,1764756324135855,-3.93464858916559e-07
1764756299,1764756324151480,-1.684019935055403e-06
1764756299,1764756324167105,-2.3563723061670316e-06
1764756299,1764756324182730,-2.1121586541994475e-06
1764756299,1764756324198355,-1.046356487677258e-06
1764756299,1764756324213980,3.9343655089396634e-07
1764756299,1764756324229605,1.6839949239511043e-06
1764756299,1764756324245230,2.356350478294189e-06
1764756299,1764756324260855,2.112140464305412e-06
1764756299,1764756324276480,1.0463420494488673e-06
1764756299,1764756324292105,-3.934473511435499e-07
1764756299,1764756324307730,-1.6840021999087185e-06
1764756299,1764756324323355,-2.3563543436466716e-06
1764756299,1764756324338980,-2.1121406916790875e-06
1764756299,1764756324354605,-1.0463387525305734e-06
1764756299,1764756324370230,3.934542576189415e-07
1764756299,1764756324385855,1.6840125454109511e-06
1764756299,1764756324401480,2.3563682134408737e-06
1764756299,1764756324417105,2.1121581994520966e-06
1764756299,1764756324432730,1.046359784595552e-06
1764756299,1764756324448355,-3.9342964441857475e-07
1764756299,1764756324463980,-1.6839845784488716e-06
1764756299,1764756324479605,-2.3563368358736625e-06
1764756299,1764756324495230,-2.1121234112797538e-06
1764756299,1764756324510855,-1.0463214721312397e-06
1764756299,1764756324526480,3.934713106445997e-07
1764756299,1764756324542105,1.684029371062934e-06
1764756299,1764756324557730,2.3563845843455056e-06
1764756299,1764756324573355,2.1121741156093776e-06
1764756299,1764756324588980,1.046375246005482e-06
1764756299,1764756324604605,-3.9341460933428607e-07
1764756299,1764756324620230,-1.6839699128468055e-06
1764756299,1764756324635855,-2.356322738705785e-06
1764756299,1764756324651480,-2.1121099962329026e-06
1764756299,1764756324667105,-1.046309080265928e-06
1764756299,1764756324682730,3.934827930152096e-07
1764756299,1764756324698355,1.6840400576256798e-06
1764756299,1764756324713980,2.356394588787225e-06
1764756299,1764756324729605,2.112183437930071e-06
1764756299,1764756324745230,1.0463836588314734e-06
1764756299,1764756324760855,-3.9340710600299644e-07
1764756299,1764756324776480,-1.6839633190102177e-06
1764756299,1764756324792105,-2.356317054363899e-06
1764756299,1764756324807730,-2.1121052213857183e-06
1764756299,1764756324823355,-1.0463051012266078e-06
1764756299,1764756324838980,3.934858625598281e-07
1764756299,1764756324854605,1.6840421039887588e-06
1764756299,1764756324870230,2.356395498281927e-06
1764756299,1764756324885855,2.11218298318272e-06
1764756299,1764756324901480,1.0463818398420699e-06
1764756299,1764756324917105,-3.934102323910338e-07
1764756299,1764756324932730,-1.6839677527968888e-06
1764756299,1764756324948355,-2.356322738705785e-06
1764756299,1764756324963980,-2.112111815222306e-06
1764756299,1764756324979605,-1.0463127182447352e-06
1764756299,1764756324995230,3.9347742131212726e-07
1764756299,1764756325010855,1.6840328953549033e-06
1764756299,1764756325026480,2.356385721213883e-06
1764756299,1764756325042105,2.112172751367325e-06
1764756299,1764756325057730,1.046371153279324e-06
1764756299,1764756325073355,-3.9342131685771164e-07
1764756299,1764756325088980,-1.6839792351674987e-06
1764756299,1764756325104605,-2.356334562136908e-06
1764756299,1764756325120230,-2.1121243207744556e-06
1764756299,1764756325135855,-1.0463255648573977e-06
1764756299,1764756325151480,3.9346414837382326e-07
1764756299,1764756325167105,1.6840192529343767e-06
1764756299,1764756325182730,2.3563716240460053e-06
1764756299,1764756325198355,2.112157972078421e-06
1764756299,1764756325213980,1.046355691869394e-06
1764756299,1764756325229605,-3.9343748881037754e-07
1764756299,1764756325245230,-1.6839960608194815e-06
1764756299,1764756325260855,-2.356352069909917e-06
1764756299,1764756325276480,-2.112142510668491e-06
1764756299,1764756325292105,-1.046344664246135e-06
1764756299,1764756325307730,3.934441963338031e-07
1764756299,1764756325323355,1.6839985619299114e-06
1764756299,1764756325338980,2.356350478294189e-06
1764756299,1764756325354605,2.112136826326605e-06
1764756299,1764756325370230,1.0463348871780909e-06
1764756299,1764756325385855,-3.9345786717603914e-07
1764756299,1764756325401480,-1.6840159560160828e-06
1764756299,1764756325417105,-2.35637139667233e-06
1764756299,1764756325432730,-2.1121611553098774e-06
1764756299,1764756325448355,-1.0463622857059818e-06
1764756299,1764756325463980,3.9342759805549576e-07
1764756299,1764756325479605,1.6839829868331435e-06
1764756299,1764756325495230,2.3563356990052853e-06
1764756299,1764756325510855,2.1121227291587275e-06
1764756299,1764756325526480,1.0463211310707266e-06
1764756299,1764756325542105,-3.934711116926337e-07
1764756299,1764756325557730,-1.6840286889419076e-06
1764756299,1764756325573355,-2.356383674850804e-06
1764756299,1764756325588980,-2.1121729787410004e-06
1764756299,1764756325604605,-1.0463737680765917e-06
1764756299,1764756325620230,3.9341654201052734e-07
1764756299,1764756325635855,1.6839723002703977e-06
1764756299,1764756325651480,2.3563254671898903e-06
1764756299,1764756325667105,2.1121129520906834e-06
1764756299,1764756325682730,1.0463118087500334e-06
1764756299,1764756325698355,-3.9348020663965144e-07
1764756299,1764756325713980,-1.6840375565152499e-06
1764756299,1764756325729605,-2.3563923150504706e-06
1764756299,1764756325745230,-2.112181391566992e-06
1764756299,1764756325760855,-1.046382180902583e-06
1764756299,1764756325776480,3.9340812918453594e-07
1764756299,1764756325792105,1.6839638874444063e-06
1764756299,1764756325807730,2.356317054363899e-06
1764756299,1764756325823355,2.112104539264692e-06
1764756299,1764756325838980,1.046303395924042e-06
1764756299,1764756325854605,-3.9348861946564284e-07
1764756299,1764756325870230,-1.6840459693412413e-06
1764756299,1764756325885855,-2.3564005005027866e-06
1764756299,1764756325901480,-2.1121893496456323e-06
1764756299,1764756325917105,-1.0463897979207104e-06
1764756299,1764756325932730,3.934008248052123e-07
1764756299,1764756325948355,1.6839569525473053e-06
1764756299,1764756325963980,2.3563106879009865e-06
1764756299,1764756325979605,2.112098854922806e-06
1764756299,1764756325995230,1.0462986210768577e-06
1764756299,1764756326010855,-3.934923427095782e-07
1764756299,1764756326026480,-1.6840485841385089e-06
1764756299,1764756326042105,-2.35640231949219e-06
1764756299,1764756326057730,-2.112190259140334e-06
1764756299,1764756326073355,-1.0463896842338727e-06
1764756299,1764756326088980,3.9340196167358954e-07
1764756299,1764756326104605,1.683959112597222e-06
1764756299,1764756326120230,2.3563136437587673e-06
1764756299,1764756326135855,2.1121022655279376e-06
1764756299,1764756326151480,1.046302600116178e-06
1764756299,1764756326167105,-3.934879089229071e-07
1764756299,1764756326182730,-1.6840436956044869e-06
1764756299,1764756326198355,-2.3563968625239795e-06
1764756299,1764756326213980,-2.112184120051097e-06
1764756299,1764756326229605,-1.0463830903972848e-06
1764756299,1764756326245230,3.9340906710094714e-07
1764756299,1764756326260855,1.6839667296153493e-06
1764756299,1764756326276480,2.356321601837408e-06
1764756299,1764756326292105,2.112110678353929e-06
1764756299,1764756326307730,1.0463114676895202e-06
1764756299,1764756326323355,-3.934785866022139e-07
1764756299,1764756326338980,-1.6840340322232805e-06
1764756299,1764756326354605,-2.3563866307085846e-06
1764756299,1764756326370230,-2.1121734334883513e-06
1764756299,1764756326385855,-1.0463719490871881e-06
1764756299,1764756326401480,3.9342057789326645e-07
1764756299,1764756326417105,1.6839785530464724e-06
1764756299,1764756326432730,2.3563338800158817e-06
1764756299,1764756326448355,2.1121236386534292e-06
1764756299,1764756326463980,1.0463247690495336e-06
1764756299,1764756326479605,-3.93464858916559e-07
1764756299,1764756326495230,-1.684019935055403e-06
1764756299,1764756326510855,-2.3563723061670316e-06
1764756299,1764756326526480,-2.1121586541994475e-06
1764756299,1764756326542105,-1.046356487677258e-06
1764756299,1764756326557730,3.9343655089396634e-07
1764756299,1764756326573355,1.6839949239511043e-06
1764756299,1764756326588980,2.356350478294189e-06
1764756299,1764756326604605,2.112140464305412e-06
1764756299,1764756326620230,1.0463420494488673e-06
1764756299,1764756326635855,-3.934473511435499e-07
1764756299,1764756326651480,-1.6840021999087185e-06
1764756299,1764756326667105,-2.3563543436466716e-06
1764756299,1764756326682730,-2.1121406916790875e-06
1764756299,1764756326698355,-1.0463387525305734e-06
1764756299,1764756326713980,3.934542576189415e-07
1764756299,1764756326729605,1.6840125454109511e-06
1764756299,1764756326745230,2.3563682134408737e-06
1764756299,1764756326760855,2.1121581994520966e-06
1764756299,1764756326776480,1.046359784595552e-06
1764756299,1764756326792105,-3.9342964441857475e-07
1764756299,1764756326807730,-1.6839845784488716e-06
1764756299,1764756326823355,-2.3563368358736625e-06
1764756299,1764756326838980,-2.1121234112797538e-06
1764756299,1764756326854605,-1.0463214721312397e-06
1764756299,1764756326870230,3.934713106445997e-07
1764756299,1764756326885855,1.684029371062934e-06
1764756299,1764756326901480,2.3563845843455056e-06
1764756299,1764756326917105,2.1121741156093776e-06
1764756299,1764756326932730,1.046375246005482e-06
1764756299,1764756326948355,-3.9341460933428607e-07
1764756299,1764756326963980,-1.6839699128468055e-06
1764756299,1764756326979605,-2.356322738705785e-06
1764756299,1764756326995230,-2.1121099962329026e-06
1764756299,1764756327010855,-1.046309080265928e-06
1764756299,1764756327026480,3.934827930152096e-07
1764756299,1764756327042105,1.6840400576256798e-06
1764756299,1764756327057730,2.356394588787225e-06
1764756299,1764756327073355,2.112183437930071e-06
1764756299,1764756327088980,1.0463836588314734e-06
1764756299,1764756327104605,-3.9340710600299644e-07
1764756299,1764756327120230,-1.6839633190102177e-06
1764756299,1764756327135855,-2.356317054363899e-06
1764756299,1764756327151480,-2.1121052213857183e-06
1764756299,1764756327167105,-1.0463051012266078e-06
1764756299,1764756327182730,3.934858625598281e-07
1764756299,1764756327198355,1.6840421039887588e-06
1764756299,1764756327213980,2.356395498281927e-06
1764756299,1764756327229605,2.11218298318272e-06
1764756299,1764756327245230,1.0463818398420699e-06
1764756299,1764756327260855,-3.934102323910338e-07
1764756299,1764756327276480,-1.6839677527968888e-06
1764756299,1764756327292105,-2.356322738705785e-06
1764756299,1764756327307730,-2.112111815222306e-06
1764756299,1764756327323355,-1.0463127182447352e-06
1764756299,1764756327338980,3.9347742131212726e-07
1764756299,1764756327354605,1.6840328953549033e-06
1764756299,1764756327370230,2.356385721213883e-06
1764756299,1764756327385855,2.112172751367325e-06
1764756299,1764756327401480,1.046371153279324e-06
1764756299,1764756327417105,-3.9342131685771164e-07
1764756299,1764756327432730,-1.6839792351674987e-06
1764756299,1764756327448355,-2.356334562136908e-06
1764756299,1764756327463980,-2.1121243207744556e-06
1764756299,1764756327479605,-1.0463255648573977e-06
1764756299,1764756327495230,3.9346414837382326e-07
1764756299,1764756327510855,1.6840192529343767e-06
1764756299,1764756327526480,2.3563716240460053e-06
1764756299,1764756327542105,2.112157972078421e-06
1764756299,1764756327557730,1.046355691869394e-06
1764756299,1764756327573355,-3.9343748881037754e-07
1764756299,1764756327588980,-1.6839960608194815e-06
1764756299,1764756327604605,-2.356352069909917e-06
1764756299,1764756327620230,-2.112142510668491e-06
1764756299,1764756327635855,-1.046344664246135e-06
1764756299,1764756327651480,3.934441963338031e-07
1764756299,1764756327667105,1.6839985619299114e-06
1764756299,1764756327682730,2.356350478294189e-06
1764756299,1764756327698355,2.112136826326605e-06
1764756299,1764756327713980,1.0463348871780909e-06
1764756299,1764756327729605,-3.9345786717603914e-07
1764756299,1764756327745230,-1.6840159560160828e-06
1764756299,1764756327760855,-2.35637139667233e-06
1764756299,1764756327776480,-2.1121611553098774e-06
1764756299,1764756327792105,-1.0463622857059818e-06
1764756299,1764756327807730,3.9342759805549576e-07
1764756299,1764756327823355,1.6839829868331435e-06
1764756299,1764756327838980,2.3563356990052853e-06
1764756299,1764756327854605,2.1121227291587275e-06
1764756299,1764756327870230,1.0463211310707266e-06
1764756299,1764756327885855,-3.934711116926337e-07
1764756299,1764756327901480,-1.6840286889419076e-06
1764756299,1764756327917105,-2.356383674850804e-06
1764756299,1764756327932730,-2.1121729787410004e-06
1764756299,1764756327948355,-1.0463737680765917e-06
1764756299,1764756327963980,3.9341654201052734e-07
1764756299,1764756327979605,1.6839723002703977e-06
1764756299,1764756327995230,2.3563254671898903e-06
1764756299,1764756328010855,2.1121129520906834e-06
1764756299,1764756328026480,1.0463118087500334e-06
1764756299,1764756328042105,-3.9348020663965144e-07
1764756299,1764756328057730,-1.6840375565152499e-06
1764756299,1764756328073355,-2.3563923150504706e-06
1764756299,1764756328088980,-2.112181391566992e-06
1764756299,1764756328104605,-1.046382180902583e-06
1764756299,1764756328120230,3.9340812918453594e-07
1764756299,1764756328135855,1.6839638874444063e-06
1764756299,1764756328151480,2.356317054363899e-06
1764756299,1764756328167105,2.112104539264692e-06
1764756299,1764756328182730,1.046303395924042e-06
1764756299,1764756328198355,-3.9348861946564284e-07
1764756299,1764756328213980,-1.6840459693412413e-06
1764756299,1764756328229605,-2.3564005005027866e-06
1764756299,1764756328245230,-2.1121893496456323e-06
1764756299,1764756328260855,-1.0463897979207104e-06
1764756299,1764756328276480,3.934008248052123e-07
1764756299,1764756328292105,1.6839569525473053e-06
1764756299,1764756328307730,2.3563106879009865e-06
1764756299,1764756328323355,2.112098854922806e-06
1764756299,1764756328338980,1.0462986210768577e-06
1764756299,1764756328354605,-3.934923427095782e-07
1764756299,1764756328370230,-1.6840485841385089e-06
1764756299,1764756328385855,-2.35640231949219e-06
1764756299,1764756328401480,-2.112190259140334e-06
1764756299,1764756328417105,-1.0463896842338727e-06
1764756299,1764756328432730,3.9340196167358954e-07
1764756299,1764756328448355,1.683959112597222e-06
1764756299,1764756328463980,2.3563136437587673e-06
1764756299,1764756328479605,2.1121022655279376e-06
1764756299,1764756328495230,1.046302600116178e-06
1764756299,1764756328510855,-3.934879089229071e-07
1764756299,1764756328526480,-1.6840436956044869e-06
1764756299,1764756328542105,-2.3563968625239795e-06
1764756299,1764756328557730,-2.112184120051097e-06
1764756299,1764756328573355,-1.0463830903972848e-06
1764756299,1764756328588980,3.9340906710094714e-07
1764756299,1764756328604605,1.6839667296153493e-06
1764756299,1764756328620230,2.356321601837408e-06
1764756299,1764756328635855,2.112110678353929e-06
1764756299,1764756328651480,1.0463114676895202e-06
1764756299,1764756328667105,-3.934785866022139e-07
1764756299,1764756328682730,-1.6840340322232805e-06
1764756299,1764756328698355,-2.3563866307085846e-06
1764756299,1764756328713980,-2.1121734334883513e-06
1764756299,1764756328729605,-1.0463719490871881e-06
1764756299,1764756328745230,3.9342057789326645e-07
1764756299,1764756328760855,1.6839785530464724e-06
1764756299,1764756328776480,2.3563338800158817e-06
1764756299,1764756328792105,2.1121236386534292e-06
1764756299,1764756328807730,1.0463247690495336e-06
1764756299,1764756328823355,-3.93464858916559e-07
1764756299,1764756328838980,-1.684019935055403e-06
1764756299,1764756328854605,-2.3563723061670316e-06
1764756299,1764756328870230,-2.1121586541994475e-06
1764756299,1764756328885855,-1.046356487677258e-06
1764756299,1764756328901480,3.9343655089396634e-07
1764756299,1764756328917105,1.6839949239511043e-06
1764756299,1764756328932730,2.356350478294189e-06
1764756299,1764756328948355,2.112140464305412e-06
1764756299,1764756328963980,1.0463420494488673e-06
1764756299,1764756328979605,-3.934473511435499e-07
1764756299,1764756328995230,-1.6840021999087185e-06
1764756299,1764756329010855,-2.3563543436466716e-06
1764756299,1764756329026480,-2.1121406916790875e-06
1764756299,1764756329042105,-1.0463387525305734e-06
1764756299,1764756329057730,3.934542576189415e-07
1764756299,1764756329073355,1.6840125454109511e-06
1764756299,1764756329088980,2.3563682134408737e-06
1764756299,1764756329104605,2.1121581994520966e-06
1764756299,1764756329120230,1.046359784595552e-06
1764756299,1764756329135855,-3.9342964441857475e-07
1764756299,1764756329151480,-1.6839845784488716e-06
1764756299,1764756329167105,-2.3563368358736625e-06
1764756299,1764756329182730,-2.1121234112797538e-06
1764756299,1764756329198355,-1.0463214721312397e-06
1764756299,1764756329213980,3.934713106445997e-07
1764756299,1764756329229605,1.684029371062934e-06
1764756299,1764756329245230,2.3563845843455056e-06
1764756299,1764756329260855,2.1121741156093776e-06
1764756299,1764756329276480,1.046375246005482e-06
1764756299,1764756329292105,-3.9341460933428607e-07
1764756299,1764756329307730,-1.6839699128468055e-06
1764756299,1764756329323355,-2.356322738705785e-06
1764756299,1764756329338980,-2.1121099962329026e-06
1764756299,1764756329354605,-1.046309080265928e-06
1764756299,1764756329370230,3.934827930152096e-07
1764756299,1764756329385855,1.6840400576256798e-06
1764756299,1764756329401480,2.356394588787225e-06
1764756299,1764756329417105,2.112183437930071e-06
1764756299,1764756329432730,1.0463836588314734e-06
1764756299,1764756329448355,-3.9340710600299644e-07
1764756299,1764756329463980,-1.6839633190102177e-06
1764756299,1764756329479605,-2.356317054363899e-06
1764756299,1764756329495230,-2.1121052213857183e-06
1764756299,1764756329510855,-1.0463051012266078e-06
1764756299,1764756329526480,3.934858625598281e-07
1764756299,1764756329542105,1.6840421039887588e-06
1764756299,1764756329557730,2.356395498281927e-06
1764756299,1764756329573355,2.11218298318272e-06
1764756299,1764756329588980,1.0463818398420699e-06
1764756299,1764756329604605,-3.934102323910338e-07
1764756299,1764756329620230,-1.6839677527968888e-06
1764756299,1764756329635855,-2.356322738705785e-06
1764756299,1764756329651480,-2.112111815222306e-06
1764756299,1764756329667105,-1.0463127182447352e-06
1764756299,1764756329682730,3.9347742131212726e-07
1764756299,1764756329698355,1.6840328953549033e-06
1764756299,1764756329713980,2.356385721213883e-06
1764756299,1764756329729605,2.112172751367325e-06
1764756299,1764756329745230,1.046371153279324e-06
1764756299,1764756329760855,-3.9342131685771164e-07
1764756299,1764756329776480,-1.6839792351674987e-06
1764756299,1764756329792105,-2.356334562136908e-06
1764756299,1764756329807730,-2.1121243207744556e-06
1764756299,1764756329823355,-1.0463255648573977e-06
1764756299,1764756329838980,3.9346414837382326e-07
1764756299,1764756329854605,1.6840192529343767e-06
1764756299,1764756329870230,2.3563716240460053e-06
1764756299,1764756329885855,2.112157972078421e-06
1764756299,1764756329901480,1.046355691869394e-06
1764756299,1764756329917105,-3.9343748881037754e-07
1764756299,1764756329932730,-1.6839960608194815e-06
1764756299,1764756329948355,-2.356352069909917e-06
1764756299,1764756329963980,-2.112142510668491e-06
1764756299,1764756329979605,-1.046344664246135e-06
1764756299,1764756329995230,3.934441963338031e-07
1764756299,1764756330010855,1.6839985619299114e-06
1764756299,1764756330026480,2.356350478294189e-06
1764756299,1764756330042105,2.112136826326605e-06
1764756299,1764756330057730,1.0463348871780909e-06
1764756299,1764756330073355,-3.9345786717603914e-07
1764756299,1764756330088980,-1.6840159560160828e-06
1764756299,1764756330104605,-2.35637139667233e-06
1764756299,1764756330120230,-2.1121611553098774e-06
1764756299,1764756330135855,-1.0463622857059818e-06
1764756299,1764756330151480,3.9342759805549576e-07
1764756299,1764756330167105,1.6839829868331435e-06
1764756299,1764756330182730,2.3563356990052853e-06
1764756299,1764756330198355,2.1121227291587275e-06
1764756299,1764756330213980,1.0463211310707266e-06
1764756299,1764756330229605,-3.934711116926337e-07
1764756299,1764756330245230,-1.6840286889419076e-06
1764756299,1764756330260855,-2.356383674850804e-06
1764756299,1764756330276480,-2.1121729787410004e-06
1764756299,1764756330292105,-1.0463737680765917e-06
1764756299,1764756330307730,3.9341654201052734e-07
1764756299,1764756330323355,1.6839723002703977e-06
1764756299,1764756330338980,2.3563254671898903e-06
1764756299,1764756330354605,2.1121129520906834e-06
1764756299,1764756330370230,1.0463118087500334e-06
1764756299,1764756330385855,-3.9348020663965144e-07
1764756299,1764756330401480,-1.6840375565152499e-06
1764756299,1764756330417105,-2.3563923150504706e-06
1764756299,1764756330432730,-2.112181391566992e-06
1764756299,1764756330448355,-1.046382180902583e-06
1764756299,1764756330463980,3.9340812918453594e-07
1764756299,1764756330479605,1.6839638874444063e-06
1764756299,1764756330495230,2.356317054363899e-06
1764756299,1764756330510855,2.112104539264692e-06
1764756299,1764756330526480,1.046303395924042e-06
1764756299,1764756330542105,-3.9348861946564284e-07
1764756299,1764756330557730,-1.6840459693412413e-06
1764756299,1764756330573355,-2.3564005005027866e-06
1764756299,1764756330588980,-2.1121893496456323e-06
1764756299,1764756330604605,-1.0463897979207104e-06
1764756299,1764756330620230,3.934008248052123e-07
1764756299,1764756330635855,1.6839569525473053e-06
1764756299,1764756330651480,2.3563106879009865e-06
1764756299,1764756330667105,2.112098854922806e-06
1764756299,1764756330682730,1.0462986210768577e-06
1764756299,1764756330698355,-3.934923427095782e-07
1764756299,1764756330713980,-1.6840485841385089e-06
1764756299,1764756330729605,-2.35640231949219e-06
1764756299,1764756330745230,-2.112190259140334e-06
1764756299,1764756330760855,-1.0463896842338727e-06
1764756299,1764756330776480,3.9340196167358954e-07
1764756299,1764756330792105,1.683959112597222e-06
1764756299,1764756330807730,2.3563136437587673e-06
1764756299,1764756330823355,2.1121022655279376e-06
1764756299,1764756330838980,1.046302600116178e-06
1764756299,1764756330854605,-3.934879089229071e-07
1764756299,1764756330870230,-1.6840436956044869e-06
1764756299,1764756330885855,-2.3563968625239795e-06
1764756299,1764756330901480,-2.112184120051097e-06
1764756299,1764756330917105,-1.0463830903972848e-06
1764756299,1764756330932730,3.9340906710094714e-07
1764756299,1764756330948355,1.6839667296153493e-06
1764756299,1764756330963980,2.356321601837408e-06
1764756299,1764756330979605,2.112110678353929e-06
1764756299,1764756330995230,1.0463114676895202e-06
1764756299,1764756331010855,-3.934785866022139e-07
1764756299,1764756331026480,-1.6840340322232805e-06
1764756299,1764756331042105,-2.3563866307085846e-06
1764756299,1764756331057730,-2.1121734334883513e-06
1764756299,1764756331073355,-1.0463719490871881e-06
1764756299,1764756331088980,3.9342057789326645e-07
1764756299,1764756331104605,1.6839785530464724e-06
1764756299,1764756331120230,2.3563338800158817e-06
1764756299,1764756331135855,2.1121236386534292e-06
1764756299,1764756331151480,1.0463247690495336e-06
1764756299,1764756331167105,-3.93464858916559e-07
1764756299,1764756331182730,-1.684019935055403e-06
1764756299,1764756331198355,-2.3563723061670316e-06
1764756299,1764756331213980,-2.1121586541994475e-06
1764756299,1764756331229605,-1.046356487677258e-06
1764756299,1764756331245230,3.9343655089396634e-07
1764756299,1764756331260855,1.6839949239511043e-06
1764756299,1764756331276480,2.356350478294189e-06
1764756299,1764756331292105,2.112140464305412e-06
1764756299,1764756331307730,1.0463420494488673e-06
1764756299,1764756331323355,-3.934473511435499e-07
1764756299,1764756331338980,-1.6840021999087185e-06
1764756299,1764756331354605,-2.3563543436466716e-06
1764756299,1764756331370230,-2.1121406916790875e-06
1764756299,1764756331385855,-1.0463387525305734e-06
1764756299,1764756331401480,3.934542576189415e-07
1764756299,1764756331417105,1.6840125454109511e-06
1764756299,1764756331432730,2.3563682134408737e-06
1764756299,1764756331448355,2.1121581994520966e-06
1764756299,1764756331463980,1.046359784595552e-06
1764756299,1764756331479605,-3.9342964441857475e-07
1764756299,1764756331495230,-1.6839845784488716e-06
1764756299,1764756331510855,-2.3563368358736625e-06
1764756299,1764756331526480,-2.1121234112797538e-06
1764756299,1764756331542105,-1.0463214721312397e-06
1764756299,1764756331557730,3.934713106445997e-07
1764756299,1764756331573355,1.684029371062934e-06
1764756299,1764756331588980,2.3563845843455056e-06
1764756299,1764756331604605,2.1121741156093776e-06
1764756299,1764756331620230,1.046375246005482e-06
1764756299,1764756331635855,-3.9341460933428607e-07
1764756299,1764756331651480,-1.6839699128468055e-06
1764756299,1764756331667105,-2.356322738705785e-06
1764756299,1764756331682730,-2.1121099962329026e-06
1764756299,1764756331698355,-1.046309080265928e-06
1764756299,1764756331713980,3.934827930152096e-07
1764756299,1764756331729605,1.6840400576256798e-06
1764756299,1764756331745230,2.356394588787225e-06
1764756299,1764756331760855,2.112183437930071e-06
1764756299,1764756331776480,1.0463836588314734e-06
1764756299,1764756331792105,-3.9340710600299644e-07
1764756299,1764756331807730,-1.6839633190102177e-06
1764756299,1764756331823355,-2.356317054363899e-06
1764756299,1764756331838980,-2.1121052213857183e-06
1764756299,1764756331854605,-1.0463051012266078e-06
1764756299,1764756331870230,3.934858625598281e-07
1764756299,1764756331885855,1.6840421039887588e-06
1764756299,1764756331901480,2.356395498281927e-06
1764756299,1764756331917105,2.11218298318272e-06
1764756299,1764756331932730,1.0463818398420699e-06
1764756299,1764756331948355,-3.934102323910338e-07
1764756299,1764756331963980,-1.6839677527968888e-06
1764756299,1764756331979605,-2.356322738705785e-06
1764756299,1764756331995230,-2.112111815222306e-06
1764756299,1764756332010855,-1.0463127182447352e-06
1764756299,1764756332026480,3.9347742131212726e-07
1764756299,1764756332042105,1.6840328953549033e-06
1764756299,1764756332057730,2.356385721213883e-06
1764756299,1764756332073355,2.112172751367325e-06
1764756299,1764756332088980,1.046371153279324e-06
1764756299,1764756332104605,-3.9342131685771164e-07
1764756299,1764756332120230,-1.6839792351674987e-06
1764756299,1764756332135855,-2.356334562136908e-06
1764756299,1764756332151480,-2.1121243207744556e-06
1764756299,1764756332167105,-1.0463255648573977e-06
1764756299,1764756332182730,3.9346414837382326e-07
1764756299,1764756332198355,1.6840192529343767e-06
1764756299,1764756332213980,2.3563716240460053e-06
1764756299,1764756332229605,2.112157972078421e-06
1764756299,1764756332245230,1.046355691869394e-06
1764756299,1764756332260855,-3.9343748881037754e-07
1764756299,1764756332276480,-1.6839960608194815e-06
1764756299,1764756332292105,-2.356352069909917e-06
1764756299,1764756332307730,-2.112142510668491e-06
1764756299,1764756332323355,-1.046344664246135e-06
1764756299,1764756332338980,3.934441963338031e-07
1764756299,1764756332354605,1.6839985619299114e-06
1764756299,1764756332370230,2.356350478294189e-06
1764756299,1764756332385855,2.112136826326605e-06
1764756299,1764756332401480,1.0463348871780909e-06
1764756299,1764756332417105,-3.9345786717603914e-07
1764756299,1764756332432730,-1.6840159560160828e-06
1764756299,1764756332448355,-2.35637139667233e-06
1764756299,1764756332463980,-2.1121611553098774e-06
1764756299,1764756332479605,-1.0463622857059818e-06
1764756299,1764756332495230,3.9342759805549576e-07
1764756299,1764756332510855,1.6839829868331435e-06
1764756299,1764756332526480,2.3563356990052853e-06
1764756299,1764756332542105,2.1121227291587275e-06
1764756299,1764756332557730,1.0463211310707266e-06
1764756299,1764756332573355,-3.934711116926337e-07
1764756299,1764756332588980,-1.6840286889419076e-06
1764756299,1764756332604605,-2.356383674850804e-06
1764756299,1764756332620230,-2.1121729787410004e-06
1764756299,1764756332635855,-1.0463737680765917e-06
1764756299,1764756332651480,3.9341654201052734e-07
1764756299,1764756332667105,1.6839723002703977e-06
1764756299,1764756332682730,2.3563254671898903e-06
1764756299,1764756332698355,2.1121129520906834e-06
1764756299,1764756332713980,1.0463118087500334e-06
1764756299,1764756332729605,-3.9348020663965144e-07
1764756299,1764756332745230,-1.6840375565152499e-06
1764756299,1764756332760855,-2.3563923150504706e-06
1764756299,1764756332776480,-2.112181391566992e-06
1764756299,1764756332792105,-1.046382180902583e-06
1764756299,1764756332807730,3.9340812918453594e-07
1764756299,1764756332823355,1.6839638874444063e-06
1764756299,1764756332838980,2.356317054363899e-06
1764756299,1764756332854605,2.112104539264692e-06
1764756299,1764756332870230,1.046303395924042e-06
1764756299,1764756332885855,-3.9348861946564284e-07
1764756299,1764756332901480,-1.6840459693412413e-06
1764756299,1764756332917105,-2.3564005005027866e-06
1764756299,1764756332932730,-2.1121893496456323e-06
1764756299,1764756332948355,-1.0463897979207104e-06
1764756299,1764756332963980,3.934008248052123e-07
1764756299,1764756332979605,1.6839569525473053e-06
1764756299,1764756332995230,2.3563106879009865e-06
1764756299,1764756333010855,2.112098854922806e-06
1764756299,1764756333026480,1.0462986210768577e-06
1764756299,1764756333042105,-3.934923427095782e-07
1764756299,1764756333057730,-1.6840485841385089e-06
1764756299,1764756333073355,-2.35640231949219e-06
1764756299,1764756333088980,-2.112190259140334e-06
1764756299,1764756333104605,-1.0463896842338727e-06
1764756299,1764756333120230,3.9340196167358954e-07
1764756299,1764756333135855,1.683959112597222e-06
1764756299,1764756333151480,2.3563136437587673e-06
1764756299,1764756333167105,2.1121022655279376e-06
1764756299,1764756333182730,1.046302600116178e-06
1764756299,1764756333198355,-3.934879089229071e-07
1764756299,1764756333213980,-1.6840436956044869e-06
1764756299,1764756333229605,-2.3563968625239795e-06
1764756299,1764756333245230,-2.112184120051097e-06
1764756299,1764756333260855,-1.0463830903972848e-06
1764756299,1764756333276480,3.9340906710094714e-07
1764756299,1764756333292105,1.6839667296153493e-06
1764756299,1764756333307730,2.356321601837408e-06
1764756299,1764756333323355,2.112110678353929e-06
1764756299,1764756333338980,1.0463114676895202e-06
1764756299,1764756333354605,-3.934785866022139e-07
1764756299,1764756333370230,-1.6840340322232805e-06
1764756299,1764756333385855,-2.3563866307085846e-06
1764756299,1764756333401480,-2.1121734334883513e-06
1764756299,1764756333417105,-1.0463719490871881e-06
1764756299,1764756333432730,3.9342057789326645e-07
1764756299,1764756333448355,1.6839785530464724e-06
1764756299,1764756333463980,2.3563338800158817e-06
1764756299,1764756333479605,2.1121236386534292e-06
1764756299,1764756333495230,1.0463247690495336e-06
1764756299,1764756333510855,-3.93464858916559e-07
1764756299,1764756333526480,-1.684019935055403e-06
1764756299,1764756333542105,-2.3563723061670316e-06
1764756299,1764756333557730,-2.1121586541994475e-06
1764756299,1764756333573355,-1.046356487677258e-06
1764756299,1764756333588980,3.9343655089396634e-07
1764756299,1764756333604605,1.6839949239511043e-06
1764756299,1764756333620230,2.356350478294189e-06
1764756299,1764756333635855,2.112140464305412e-06
1764756299,1764756333651480,1.0463420494488673e-06
1764756299,1764756333667105,-3.934473511435499e-07
1764756299,1764756333682730,-1.6840021999087185e-06
1764756299,1764756333698355,-2.3563543436466716e-06
1764756299,1764756333713980,-2.1121406916790875e-06
1764756299,1764756333729605,-1.0463387525305734e-06
1764756299,1764756333745230,3.934542576189415e-07
1764756299,1764756333760855,1.6840125454109511e-06
1764756299,1764756333776480,2.3563682134408737e-06
1764756299,1764756333792105,2.1121581994520966e-06
1764756299,1764756333807730,1.046359784595552e-06
1764756299,1764756333823355,-3.9342964441857475e-07
1764756299,1764756333838980,-1.6839845784488716e-06
1764756299,1764756333854605,-2.3563368358736625e-06
1764756299,1764756333870230,-2.1121234112797538e-06
1764756299,1764756333885855,-1.0463214721312397e-06
1764756299,1764756333901480,3.934713106445997e-07
1764756299,1764756333917105,1.684029371062934e-06
1764756299,1764756333932730,2.3563845843455056e-06
1764756299,1764756333948355,2.1121741156093776e-06
1764756299,1764756333963980,1.046375246005482e-06
1764756299,1764756333979605,-3.9341460933428607e-07
1764756299,1764756333995230,-1.6839699128468055e-06
1764756299,1764756334010855,-2.356322738705785e-06
1764756299,1764756334026480,-2.1121099962329026e-06
1764756299,1764756334042105,-1.046309080265928e-06
1764756299,1764756334057730,3.934827930152096e-07
1764756299,1764756334073355,1.6840400576256798e-06
1764756299,1764756334088980,2.356394588787225e-06
1764756299,1764756334104605,2.112183437930071e-06
1764756299,1764756334120230,1.0463836588314734e-06
1764756299,1764756334135855,-3.9340710600299644e-07
1764756299,1764756334151480,-1.6839633190102177e-06
1764756299,1764756334167105,-2.356317054363899e-06
1764756299,1764756334182730,-2.1121052213857183e-06
1764756299,1764756334198355,-1.0463051012266078e-06
1764756299,1764756334213980,3.934858625598281e-07
1764756299,1764756334229605,1.6840421039887588e-06
1764756299,1764756334245230,2.356395498281927e-06
1764756299,1764756334260855,2.11218298318272e-06
1764756299,1764756334276480,1.0463818398420699e-06
1764756299,1764756334292105,-3.934102323910338e-07
1764756299,1764756334307730,-1.6839677527968888e-06
1764756299,1764756334323355,-2.356322738705785e-06
1764756299,1764756334338980,-2.112111815222306e-06
1764756299,1764756334354605,-1.0463127182447352e-06
1764756299,1764756334370230,3.9347742131212726e-07
1764756299,1764756334385855,1.6840328953549033e-06
1764756299,1764756334401480,2.356385721213883e-06
1764756299,1764756334417105,2.112172751367325e-06
1764756299,1764756334432730,1.046371153279324e-06
1764756299,1764756334448355,-3.9342131685771164e-07
1764756299,1764756334463980,-1.6839792351674987e-06
1764756299,1764756334479605,-2.356334562136908e-06
1764756299,1764756334495230,-2.1121243207744556e-06
1764756299,1764756334510855,-1.0463255648573977e-06
1764756299,1764756334526480,3.9346414837382326e-07
1764756299,1764756334542105,1.6840192529343767e-06
1764756299,1764756334557730,2.3563716240460053e-06
1764756299,1764756334573355,2.112157972078421e-06
1764756299,1764756334588980,1.046355691869394e-06
1764756299,1764756334604605,-3.9343748881037754e-07
1764756299,1764756334620230,-1.6839960608194815e-06
1764756299,1764756334635855,-2.356352069909917e-06
1764756299,1764756334651480,-2.112142510668491e-06
1764756299,1764756334667105,-1.046344664246135e-06
1764756299,1764756334682730,3.934441963338031e-07
1764756299,1764756334698355,1.6839985619299114e-06
1764756299,1764756334713980,2.356350478294189e-06
1764756299,1764756334729605,2.112136826326605e-06
1764756299,1764756334745230,1.0463348871780909e-06
1764756299,1764756334760855,-3.9345786717603914e-07
1764756299,1764756334776480,-1.6840159560160828e-06
1764756299,1764756334792105,-2.35637139667233e-06
1764756299,1764756334807730,-2.1121611553098774e-06
1764756299,1764756334823355,-1.0463622857059818e-06
1764756299,1764756334838980,3.9342759805549576e-07
1764756299,1764756334854605,1.6839829868331435e-06
1764756299,1764756334870230,2.3563356990052853e-06
1764756299,1764756334885855,2.1121227291587275e-06
1764756299,1764756334901480,1.0463211310707266e-06
1764756299,1764756334917105,-3.934711116926337e-07
1764756299,1764756334932730,-1.6840286889419076e-06
1764756299,1764756334948355,-2.356383674850804e-06
1764756299,1764756334963980,-2.1121729787410004e-06
1764756299,1764756334979605,-1.0463737680765917e-06
1764756299,1764756334995230,3.9341654201052734e-07
1764756299,1764756335010855,1.6839723002703977e-06
1764756299,1764756335026480,2.3563254671898903e-06
1764756299,1764756335042105,2.1121129520906834e-06
1764756299,1764756335057730,1.0463118087500334e-06
1764756299,1764756335073355,-3.9348020663965144e-07
1764756299,1764756335088980,-1.6840375565152499e-06
1764756299,1764756335104605,-2.3563923150504706e-06
1764756299,1764756335120230,-2.112181391566992e-06
1764756299,1764756335135855,-1.046382180902583e-06
1764756299,1764756335151480,3.9340812918453594e-07
1764756299,1764756335167105,1.6839638874444063e-06
1764756299,1764756335182730,2.356317054363899e-06
1764756299,1764756335198355,2.112104539264692e-06
1764756299,1764756335213980,1.046303395924042e-06
1764756299,1764756335229605,-3.9348861946564284e-07
1764756299,1764756335245230,-1.6840459693412413e-06
1764756299,1764756335260855,-2.3564005005027866e-06
1764756299,1764756335276480,-2.1121893496456323e-06
1764756299,1764756335292105,-1.0463897979207104e-06
1764756299,1764756335307730,3.934008248052123e-07
1764756299,1764756335323355,1.6839569525473053e-06
1764756299,1764756335338980,2.3563106879009865e-06
1764756299,1764756335354605,2.112098854922806e-06
1764756299,1764756335370230,1.0462986210768577e-06
1764756299,1764756335385855,-3.934923427095782e-07
1764756299,1764756335401480,-1.6840485841385089e-06
1764756299,1764756335417105,-2.35640231949219e-06
1764756299,1764756335432730,-2.112190259140334e-06
1764756299,1764756335448355,-1.0463896842338727e-06
1764756299,1764756335463980,3.9340196167358954e-07
1764756299,1764756335479605,1.683959112597222e-06
1764756299,1764756335495230,2.3563136437587673e-06
1764756299,1764756335510855,2.1121022655279376e-06
1764756299,1764756335526480,1.046302600116178e-06
1764756299,1764756335542105,-3.934879089229071e-07
1764756299,1764756335557730,-1.6840436956044869e-06
1764756299,1764756335573355,-2.3563968625239795e-06
1764756299,1764756335588980,-2.112184120051097e-06
1764756299,1764756335604605,-1.0463830903972848e-06
1764756299,1764756335620230,3.9340906710094714e-07
1764756299,1764756335635855,1.6839667296153493e-06
1764756299,1764756335651480,2.356321601837408e-06
1764756299,1764756335667105,2.112110678353929e-06
1764756299,1764756335682730,1.0463114676895202e-06
1764756299,1764756335698355,-3.934785866022139e-07
1764756299,1764756335713980,-1.6840340322232805e-06
1764756299,1764756335729605,-2.3563866307085846e-06
1764756299,1764756335745230,-2.1121734334883513e-06
1764756299,1764756335760855,-1.0463719490871881e-06
1764756299,1764756335776480,3.9342057789326645e-07
1764756299,1764756335792105,1.6839785530464724e-06
1764756299,1764756335807730,2.3563338800158817e-06
1764756299,1764756335823355,2.1121236386534292e-06
1764756299,1764756335838980,1.0463247690495336e-06
1764756299,1764756335854605,-3.93464858916559e-07
1764756299,1764756335870230,-1.684019935055403e-06
1764756299,1764756335885855,-2.3563723061670316e-06
1764756299,1764756335901480,-2.1121586541994475e-06
1764756299,1764756335917105,-1.046356487677258e-06
1764756299,1764756335932730,3.9343655089396634e-07
1764756299,1764756335948355,1.6839949239511043e-06
1764756299,1764756335963980,2.356350478294189e-06
1764756299,1764756335979605,2.112140464305412e-06
1764756299,1764756335995230,1.0463420494488673e-06
1764756299,1764756336010855,-3.934473511435499e-07
1764756299,1764756336026480,-1.6840021999087185e-06
1764756299,1764756336042105,-2.3563543436466716e-06
1764756299,1764756336057730,-2.1121406916790875e-06
1764756299,1764756336073355,-1.0463387525305734e-06
1764756299,1764756336088980,3.934542576189415e-07
1764756299,1764756336104605,1.6840125454109511e-06
1764756299,1764756336120230,2.3563682134408737e-06
1764756299,1764756336135855,2.1121581994520966e-06
1764756299,1764756336151480,1.046359784595552e-06
1764756299,1764756336167105,-3.9342964441857475e-07
1764756299,1764756336182730,-1.6839845784488716e-06
1764756299,1764756336198355,-2.3563368358736625e-06
1764756299,1764756336213980,-2.1121234112797538e-06
1764756299,1764756336229605,-1.0463214721312397e-06
1764756299,1764756336245230,3.934713106445997e-07
1764756299,1764756336260855,1.684029371062934e-06
1764756299,1764756336276480,2.3563845843455056e-06
1764756299,1764756336292105,2.1121741156093776e-06
1764756299,1764756336307730,1.046375246005482e-06
1764756299,1764756336323355,-3.9341460933428607e-07
1764756299,1764756336338980,-1.6839699128468055e-06
1764756299,1764756336354605,-2.356322738705785e-06
1764756299,1764756336370230,-2.1121099962329026e-06
1764756299,1764756336385855,-1.046309080265928e-06
1764756299,1764756336401480,3.934827930152096e-07
1764756299,1764756336417105,1.6840400576256798e-06
1764756299,1764756336432730,2.356394588787225e-06
1764756299,1764756336448355,2.112183437930071e-06
1764756299,1764756336463980,1.0463836588314734e-06
1764756299,1764756336479605,-3.9340710600299644e-07
1764756299,1764756336495230,-1.6839633190102177e-06
